0.0032689571380615234
0.0013232231140136719
0.0013191699981689453
0.0013720989227294922
0.0014743804931640625
0.0013244152069091797
0.0012943744659423828
0.0012824535369873047
0.0013279914855957031
0.0013806819915771484
0.0013530254364013672
0.0013537406921386719
0.0015740394592285156
0.0015690326690673828
0.0015566349029541016
0.0015451908111572266
0.0015208721160888672
0.0014264583587646484
0.0012896060943603516
0.001280069351196289
0.001287221908569336
0.0012936592102050781
0.001294851303100586
0.0013914108276367188
0.0015316009521484375
0.0013744831085205078
0.0014061927795410156
0.0013637542724609375
0.0013699531555175781
0.0013649463653564453
0.0013589859008789062
0.0013759136199951172
0.0013942718505859375
0.0014805793762207031
0.0014033317565917969
0.001613616943359375
0.0012962818145751953
0.0013256072998046875
0.0015387535095214844
0.0012812614440917969
0.00128936767578125
0.001172780990600586
0.0011630058288574219
0.0011692047119140625
0.0011973381042480469
0.001176595687866211
0.0011560916900634766
0.0011725425720214844
0.0011682510375976562
0.0011386871337890625
0.0011432170867919922
0.0011250972747802734
0.0017733573913574219
0.0016453266143798828
0.0016140937805175781
0.0016505718231201172
0.001653432846069336
0.0014698505401611328
0.0015532970428466797
0.0018510818481445312
0.0017399787902832031
0.0017247200012207031
0.001867532730102539
0.0017368793487548828
0.00197601318359375
0.0017414093017578125
0.001965761184692383
0.0016019344329833984
0.0016052722930908203
0.0017285346984863281
0.0016179084777832031
0.0018415451049804688
0.0015289783477783203
0.001940011978149414
0.0015473365783691406
0.0015704631805419922
0.0015130043029785156
0.0011723041534423828
0.0011556148529052734
0.0013093948364257812
0.001230001449584961
0.0011477470397949219
0.0011341571807861328
0.0011560916900634766
0.0011339187622070312
0.0011911392211914062
0.001129150390625
0.0011835098266601562
0.0011658668518066406
0.001140594482421875
0.0011878013610839844
0.001134634017944336
0.0011780261993408203
0.001142263412475586
0.0011663436889648438
0.0011408329010009766
0.0011289119720458984
0.0013995170593261719
0.0013284683227539062
0.0014576911926269531
0.0013265609741210938
0.0014278888702392578
0.001348257064819336
0.0013916492462158203
0.0013425350189208984
0.0013604164123535156
0.0012824535369873047
0.0012731552124023438
0.001194000244140625
0.0012564659118652344
0.0011463165283203125
0.0011653900146484375
0.001207113265991211
0.0017309188842773438
0.0017545223236083984
0.0020339488983154297
0.0019190311431884766
0.0019578933715820312
0.001392364501953125
0.0015568733215332031
0.0017185211181640625
0.0015044212341308594
0.001405954360961914
0.0012867450714111328
0.001447916030883789
0.0019073486328125
0.0014500617980957031
0.0015001296997070312
0.0015416145324707031
0.0013947486877441406
0.0013701915740966797
0.0015556812286376953
0.0013227462768554688
0.0013623237609863281
0.0013606548309326172
0.0013096332550048828
0.0019044876098632812
0.0017876625061035156
0.0013954639434814453
0.0017189979553222656
0.001359701156616211
0.0012822151184082031
0.0011687278747558594
0.0012631416320800781
0.0012812614440917969
0.0012068748474121094
0.0011878013610839844
0.001190185546875
0.0013511180877685547
0.0020182132720947266
0.0028862953186035156
0.002431631088256836
0.001318216323852539
0.002118349075317383
0.0016558170318603516
0.003989458084106445
0.002030611038208008
0.001886129379272461
0.0015347003936767578
0.0015439987182617188
0.0015246868133544922
0.001384735107421875
0.0013873577117919922
0.0014040470123291016
0.0014271736145019531
0.0013380050659179688
0.001316070556640625
0.0013866424560546875
0.0013000965118408203
0.0013096332550048828
0.0013115406036376953
0.0013823509216308594
0.0013382434844970703
0.0015437602996826172
0.0018231868743896484
0.0014159679412841797
0.0014925003051757812
0.00152587890625
0.0013279914855957031
0.001329183578491211
0.0015671253204345703
0.0022478103637695312
0.0014522075653076172
0.0014188289642333984
0.0014214515686035156
0.0015611648559570312
0.0015807151794433594
0.00211334228515625
0.0027761459350585938
0.0026285648345947266
0.0014607906341552734
0.002195119857788086
0.0016727447509765625
0.002041339874267578
0.0018384456634521484
0.0022974014282226562
0.0018291473388671875
0.0018360614776611328
0.0023272037506103516
0.0023279190063476562
0.0018818378448486328
0.0025169849395751953
0.002330303192138672
0.0020465850830078125
0.0020492076873779297
0.002199888229370117
0.0019295215606689453
0.0019104480743408203
0.0025191307067871094
0.0020313262939453125
0.0020623207092285156
0.002025127410888672
0.0020325183868408203
0.0021860599517822266
0.0023605823516845703
0.002724885940551758
0.0020220279693603516
0.002321004867553711
0.0022401809692382812
0.002285003662109375
0.001947164535522461
0.0025827884674072266
0.002093076705932617
0.002042055130004883
0.002213716506958008
0.002110004425048828
0.002241373062133789
0.002095460891723633
0.002053976058959961
0.0020093917846679688
0.0020978450775146484
0.0021800994873046875
0.0020227432250976562
0.002067089080810547
0.0019516944885253906
0.0019078254699707031
0.002185821533203125
0.0019240379333496094
0.002129793167114258
0.0019183158874511719
0.002010822296142578
0.0018947124481201172
0.0018773078918457031
0.001926422119140625
0.001756429672241211
0.0020132064819335938
0.0019707679748535156
0.001749277114868164
0.0019974708557128906
0.0018618106842041016
0.00180816650390625
0.004363059997558594
0.0019450187683105469
0.0021703243255615234
0.0030913352966308594
0.003020048141479492
0.0034935474395751953
0.001901865005493164
0.0017597675323486328
0.0014340877532958984
0.0016188621520996094
0.0015299320220947266
0.0013518333435058594
0.0014066696166992188
0.0013937950134277344
0.0013880729675292969
0.0013666152954101562
0.0013582706451416016
0.0014684200286865234
0.0013566017150878906
0.0013165473937988281
0.0013103485107421875
0.0015172958374023438
0.0013918876647949219
0.0013508796691894531
0.001329183578491211
0.0012874603271484375
0.0014176368713378906
0.0013463497161865234
0.0017359256744384766
0.0016636848449707031
0.001474618911743164
0.0014774799346923828
0.0016674995422363281
0.001795053482055664
0.0014057159423828125
0.0019567012786865234
0.0014195442199707031
0.0033311843872070312
0.00177764892578125
0.0017752647399902344
0.002081632614135742
0.0017819404602050781
0.0014836788177490234
0.0023598670959472656
0.002855062484741211
0.0027625560760498047
0.002468109130859375
0.002956867218017578
0.0015914440155029297
0.0019197463989257812
0.0018646717071533203
0.001905679702758789
0.002368927001953125
0.0015823841094970703
0.0028429031372070312
0.0020253658294677734
0.0024001598358154297
0.0018725395202636719
0.0022046566009521484
0.0016741752624511719
0.0015501976013183594
0.001438140869140625
0.0018358230590820312
0.001413583755493164
0.002003192901611328
0.0024971961975097656
0.0022063255310058594
0.0023703575134277344
0.002021312713623047
0.001959085464477539
0.0018949508666992188
0.0018694400787353516
0.001783609390258789
0.0017919540405273438
0.0017807483673095703
0.0017986297607421875
0.0017862319946289062
0.0020856857299804688
0.0016632080078125
0.001611471176147461
0.0014331340789794922
0.0015308856964111328
0.0014574527740478516
0.0014433860778808594
0.0014579296112060547
0.001428365707397461
0.0014302730560302734
0.0014050006866455078
0.00142669677734375
0.0016391277313232422
0.0015835762023925781
0.0014469623565673828
0.0014328956604003906
0.0014271736145019531
0.0014553070068359375
0.0015032291412353516
0.0015151500701904297
0.001730203628540039
0.0015311241149902344
0.001421213150024414
0.0021653175354003906
0.0023190975189208984
0.0019376277923583984
0.0014770030975341797
0.0015103816986083984
0.0015103816986083984
0.001596689224243164
0.001966714859008789
0.002126932144165039
0.0016131401062011719
0.0014715194702148438
0.002223491668701172
0.0014948844909667969
0.002012491226196289
0.0015871524810791016
0.0017821788787841797
0.0019829273223876953
0.0017917156219482422
0.0014677047729492188
0.0016407966613769531
0.001880645751953125
0.0017497539520263672
0.0021860599517822266
0.0017948150634765625
0.0018105506896972656
0.0024988651275634766
0.0017752647399902344
0.0021080970764160156
0.0014166831970214844
0.0016074180603027344
0.0015599727630615234
0.0022194385528564453
0.0018358230590820312
0.0013413429260253906
0.0015289783477783203
0.002379179000854492
0.0016384124755859375
0.0018396377563476562
0.0014224052429199219
0.001649618148803711
0.002843618392944336
0.0016770362854003906
0.0014717578887939453
0.001745462417602539
0.0015497207641601562
0.0016319751739501953
0.0015082359313964844
0.0019440650939941406
0.0015914440155029297
0.001596689224243164
0.0014755725860595703
0.004498958587646484
0.0019261837005615234
0.0016276836395263672
0.0016064643859863281
0.0014514923095703125
0.0014996528625488281
0.0016379356384277344
0.0015947818756103516
0.0018284320831298828
0.0016090869903564453
0.0018432140350341797
0.0017294883728027344
0.0015439987182617188
0.001905679702758789
0.0014462471008300781
0.001565694808959961
0.0014965534210205078
0.0014278888702392578
0.0014400482177734375
0.0016715526580810547
0.002002716064453125
0.0014238357543945312
0.0015561580657958984
0.0015323162078857422
0.0015764236450195312
0.0014729499816894531
0.0014812946319580078
0.0014748573303222656
0.0014674663543701172
0.0014164447784423828
0.0018165111541748047
0.0015718936920166016
0.00140380859375
0.0012898445129394531
0.0012612342834472656
0.0012371540069580078
0.00124359130859375
0.001232147216796875
0.00147247314453125
0.0014388561248779297
0.001661539077758789
0.0015718936920166016
0.001538991928100586
0.0018723011016845703
0.0016524791717529297
0.0016176700592041016
0.001634836196899414
0.0016107559204101562
0.0014584064483642578
0.001438140869140625
0.0014433860778808594
0.0019583702087402344
0.0016143321990966797
0.0015170574188232422
0.001491546630859375
0.001461029052734375
0.001470327377319336
0.0014944076538085938
0.0015592575073242188
0.001531839370727539
0.001528024673461914
0.0015211105346679688
0.0015151500701904297
0.0015959739685058594
0.001993417739868164
0.0016760826110839844
0.0014922618865966797
0.0014743804931640625
0.0014901161193847656
0.0014646053314208984
0.0014541149139404297
0.0018334388732910156
0.0015795230865478516
0.0015759468078613281
0.0015454292297363281
0.0015501976013183594
0.0015447139739990234
0.0015263557434082031
0.0015215873718261719
0.0015223026275634766
0.0015177726745605469
0.0015108585357666016
0.001508474349975586
0.0015130043029785156
0.0015048980712890625
0.0014500617980957031
0.001444101333618164
0.0014667510986328125
0.001474618911743164
0.0015285015106201172
0.0015447139739990234
0.0015215873718261719
0.0017409324645996094
0.0018358230590820312
0.001569509506225586
0.001542806625366211
0.001535654067993164
0.0015306472778320312
0.001531839370727539
0.0015513896942138672
0.0015211105346679688
0.0015139579772949219
0.0015218257904052734
0.0015115737915039062
0.0015952587127685547
0.0017733573913574219
0.0015642642974853516
0.0015132427215576172
0.001512765884399414
0.001481771469116211
0.0015304088592529297
0.0015048980712890625
0.0015473365783691406
0.0014624595642089844
0.0015420913696289062
0.00146484375
0.001505136489868164
0.0014531612396240234
0.0015397071838378906
0.0017092227935791016
0.0018911361694335938
0.0018503665924072266
0.0017595291137695312
0.0015888214111328125
0.0015347003936767578
0.0013515949249267578
0.0013358592987060547
0.0013394355773925781
0.0021054744720458984
0.0016140937805175781
0.0014176368713378906
0.0012578964233398438
0.001214742660522461
0.0012297630310058594
0.001219034194946289
0.0014612674713134766
0.0014090538024902344
0.0012135505676269531
0.001211404800415039
0.0011878013610839844
0.0011906623840332031
0.0012028217315673828
0.00118255615234375
0.001377105712890625
0.0012407302856445312
0.0012438297271728516
0.0011959075927734375
0.001180887222290039
0.001172780990600586
0.0011894702911376953
0.0011720657348632812
0.0012290477752685547
0.0011768341064453125
0.0011832714080810547
0.0011742115020751953
0.0011708736419677734
0.0011892318725585938
0.0011756420135498047
0.0011622905731201172
0.0011601448059082031
0.0011835098266601562
0.0019283294677734375
0.0019032955169677734
0.0018489360809326172
0.0018148422241210938
0.0017764568328857422
0.0018010139465332031
0.0017566680908203125
0.0017461776733398438
0.001743316650390625
0.0018324851989746094
0.0019421577453613281
0.001955747604370117
0.0019409656524658203
0.0019228458404541016
0.00244903564453125
0.0019240379333496094
0.0018935203552246094
0.0018663406372070312
0.0017788410186767578
0.0017828941345214844
0.0017442703247070312
0.0017282962799072266
0.0017321109771728516
0.0017380714416503906
0.0017490386962890625
0.0019314289093017578
0.0019059181213378906
0.0018963813781738281
0.001924276351928711
0.0020585060119628906
0.0017712116241455078
0.0017385482788085938
0.001760244369506836
0.0017316341400146484
0.001720428466796875
0.0019273757934570312
0.0019004344940185547
0.0019044876098632812
0.0019009113311767578
0.0019197463989257812
0.0019154548645019531
0.0019032955169677734
0.0018985271453857422
0.0019423961639404297
0.0019445419311523438
0.001756906509399414
0.0017175674438476562
0.0017728805541992188
0.0017235279083251953
0.0017223358154296875
0.0019259452819824219
0.0019321441650390625
0.0019016265869140625
0.001909494400024414
0.001898050308227539
0.0019342899322509766
0.0017313957214355469
0.0017216205596923828
0.0017213821411132812
0.0017199516296386719
0.0019497871398925781
0.002093076705932617
0.0020775794982910156
0.002047300338745117
0.0019402503967285156
0.0021021366119384766
0.0018913745880126953
0.001889944076538086
0.0018222332000732422
0.0017604827880859375
0.0017502307891845703
0.0017368793487548828
0.001737833023071289
0.001720428466796875
0.0017826557159423828
0.0017337799072265625
0.0019421577453613281
0.001901865005493164
0.0018966197967529297
0.0019183158874511719
0.002028942108154297
0.001745462417602539
0.0017428398132324219
0.0017244815826416016
0.0017299652099609375
0.0018117427825927734
0.0019235610961914062
0.001949310302734375
0.0019023418426513672
0.0019006729125976562
0.002011537551879883
0.0017418861389160156
0.0017197132110595703
0.0016810894012451172
0.0017018318176269531
0.0017614364624023438
0.0017886161804199219
0.001924753189086914
0.0019106864929199219
0.001916646957397461
0.0018973350524902344
0.002083301544189453
0.001734018325805664
0.0017480850219726562
0.0017752647399902344
0.0017309188842773438
0.0019409656524658203
0.0018839836120605469
0.0019092559814453125
0.0019009113311767578
0.0018701553344726562
0.0019183158874511719
0.0018849372863769531
0.0019123554229736328
0.00177001953125
0.0017435550689697266
0.0019299983978271484
0.0020880699157714844
0.002344369888305664
0.002075672149658203
0.001965045928955078
0.0021209716796875
0.0019044876098632812
0.001873016357421875
0.0017681121826171875
0.0017361640930175781
0.0017557144165039062
0.0017323493957519531
0.001733541488647461
0.0017580986022949219
0.0017209053039550781
0.0018353462219238281
0.0019533634185791016
0.0019297599792480469
0.0019426345825195312
0.00191497802734375
0.0019235610961914062
0.001737833023071289
0.0017428398132324219
0.0017473697662353516
0.0017306804656982422
0.0017249584197998047
0.0019266605377197266
0.0019223690032958984
0.0019037723541259766
0.0018987655639648438
0.0019571781158447266
0.0018973350524902344
0.001903533935546875
0.001894235610961914
0.001997232437133789
0.0019521713256835938
0.0019083023071289062
0.001895904541015625
0.0019161701202392578
0.0018966197967529297
0.0019495487213134766
0.001901865005493164
0.0018901824951171875
0.0018985271453857422
0.0019462108612060547
0.001943349838256836
0.0018815994262695312
0.0017538070678710938
0.0017850399017333984
0.0017681121826171875
0.0018422603607177734
0.0017578601837158203
0.0017664432525634766
0.0017359256744384766
0.0017547607421875
0.0018954277038574219
0.002017974853515625
0.001953601837158203
0.0019435882568359375
0.001916646957397461
0.0019609928131103516
0.001971006393432617
0.0019223690032958984
0.002008199691772461
0.00250244140625
0.0022950172424316406
0.002285003662109375
0.001962900161743164
0.0019369125366210938
0.0018439292907714844
0.0018508434295654297
0.0017747879028320312
0.0017502307891845703
0.0017595291137695312
0.0018570423126220703
0.0017549991607666016
0.0017547607421875
0.001981973648071289
0.002007007598876953
0.0019326210021972656
0.0019330978393554688
0.0020329952239990234
0.0017895698547363281
0.0017428398132324219
0.0017764568328857422
0.0017304420471191406
0.001753091812133789
0.0017480850219726562
0.0017499923706054688
0.0017313957214355469
0.0017309188842773438
0.0018086433410644531
0.0019237995147705078
0.0019109249114990234
0.0019066333770751953
0.001935720443725586
0.002046823501586914
0.0018188953399658203
0.0017774105072021484
0.0017547607421875
0.0017311573028564453
0.0017347335815429688
0.001935720443725586
0.0019006729125976562
0.0019283294677734375
0.0019299983978271484
0.0019168853759765625
0.0019466876983642578
0.0019702911376953125
0.001934051513671875
0.0019073486328125
0.001901388168334961
0.0017535686492919922
0.0017247200012207031
0.001735687255859375
0.0017399787902832031
0.0017459392547607422
0.00180816650390625
0.0019259452819824219
0.0019223690032958984
0.001912832260131836
0.0018999576568603516
0.0019278526306152344
0.0017418861389160156
0.0017261505126953125
0.0017294883728027344
0.0018334388732910156
0.0018031597137451172
0.0019154548645019531
0.001905679702758789
0.0019116401672363281
0.0019156932830810547
0.002015829086303711
0.0017385482788085938
0.0017328262329101562
0.0017249584197998047
0.0017328262329101562
0.0019350051879882812
0.0021240711212158203
0.002102375030517578
0.002071380615234375
0.0019445419311523438
0.002138376235961914
0.0019135475158691406
0.0018868446350097656
0.00177001953125
0.0018188953399658203
0.0017743110656738281
0.0017459392547607422
0.0017771720886230469
0.0018110275268554688
0.0017845630645751953
0.001825094223022461
0.0019435882568359375
0.0019378662109375
0.0019235610961914062
0.0019321441650390625
0.0020110607147216797
0.0017635822296142578
0.0017549991607666016
0.0017409324645996094
0.0017299652099609375
0.001737356185913086
0.0020227432250976562
0.004241943359375
0.0022439956665039062
0.002058744430541992
0.001988649368286133
0.0016491413116455078
0.0016050338745117188
0.0015971660614013672
0.0015997886657714844
0.0015888214111328125
0.001705169677734375
0.0019457340240478516
0.0019214153289794922
0.0019338130950927734
0.0019183158874511719
0.001985311508178711
0.001771688461303711
0.0017516613006591797
0.0017473697662353516
0.0017523765563964844
0.0017952919006347656
0.0019426345825195312
0.001918792724609375
0.0019173622131347656
0.0019152164459228516
0.0020704269409179688
0.0017807483673095703
0.0017414093017578125
0.0017380714416503906
0.0017447471618652344
0.001955270767211914
0.002113819122314453
0.0020978450775146484
0.002104520797729492
0.001982450485229492
0.002160787582397461
0.0019352436065673828
0.0019085407257080078
0.001837015151977539
0.0018131732940673828
0.0017940998077392578
0.001750946044921875
0.0017397403717041016
0.001733541488647461
0.0017426013946533203
0.0017542839050292969
0.0019342899322509766
0.002162933349609375
0.0019190311431884766
0.0019316673278808594
0.0020036697387695312
0.0017693042755126953
0.001737833023071289
0.0017805099487304688
0.0017421245574951172
0.0017278194427490234
0.0018086433410644531
0.0019295215606689453
0.0019102096557617188
0.0019249916076660156
0.0019085407257080078
0.001972675323486328
0.0017390251159667969
0.0017380714416503906
0.001737833023071289
0.0017819404602050781
0.00179290771484375
0.0019290447235107422
0.0019235610961914062
0.0019123554229736328
0.0019791126251220703
0.002013683319091797
0.0017702579498291016
0.0017380714416503906
0.0017962455749511719
0.0017733573913574219
0.0019779205322265625
0.0021152496337890625
0.002099752426147461
0.0020875930786132812
0.0020029544830322266
0.002179861068725586
0.001960277557373047
0.0019159317016601562
0.0018913745880126953
0.001886606216430664
0.0018405914306640625
0.0017714500427246094
0.0017609596252441406
0.0017406940460205078
0.0017435550689697266
0.0018227100372314453
0.001961946487426758
0.0019373893737792969
0.0019295215606689453
0.0020263195037841797
0.0020456314086914062
0.0017702579498291016
0.0017523765563964844
0.001934051513671875
0.0017578601837158203
0.0017421245574951172
0.0019369125366210938
0.0019583702087402344
0.0019254684448242188
0.001918792724609375
0.0019311904907226562
0.0019261837005615234
0.0019159317016601562
0.0019168853759765625
0.0019137859344482422
0.0019156932830810547
0.0020058155059814453
0.0017499923706054688
0.00176239013671875
0.0017452239990234375
0.0017583370208740234
0.0019526481628417969
0.002146482467651367
0.0021097660064697266
0.002100706100463867
0.0019483566284179688
0.0021293163299560547
0.0019023418426513672
0.001897573471069336
0.0018258094787597656
0.0017719268798828125
0.0017848014831542969
0.0017747879028320312
0.0017671585083007812
0.0017859935760498047
0.001760244369506836
0.001825571060180664
0.0020055770874023438
0.001928567886352539
0.0019135475158691406
0.001958131790161133
0.002099752426147461
0.0017781257629394531
0.0017786026000976562
0.0017561912536621094
0.0017650127410888672
0.0018310546875
0.0019345283508300781
0.0019278526306152344
0.0019152164459228516
0.0019276142120361328
0.0019218921661376953
0.001771688461303711
0.0017361640930175781
0.0017685890197753906
0.0017666816711425781
0.0020318031311035156
0.001791238784790039
0.0017881393432617188
0.0018317699432373047
0.0017611980438232422
0.0017480850219726562
0.001936197280883789
0.0019421577453613281
0.0019190311431884766
0.0019230842590332031
0.0019307136535644531
0.0019345283508300781
0.0017864704132080078
0.0017418861389160156
0.0017418861389160156
0.0017426013946533203
0.0018208026885986328
0.0019214153289794922
0.0019199848175048828
0.0019383430480957031
0.0019342899322509766
0.0020537376403808594
0.0018610954284667969
0.0017511844635009766
0.001737356185913086
0.0017437934875488281
0.0019614696502685547
0.0021321773529052734
0.0021011829376220703
0.0021300315856933594
0.0019474029541015625
0.0021386146545410156
0.001905202865600586
0.0019528865814208984
0.0019016265869140625
0.0018434524536132812
0.0017886161804199219
0.0017688274383544922
0.0017626285552978516
0.0017476081848144531
0.001766204833984375
0.001947641372680664
0.0017654895782470703
0.001749277114868164
0.0016331672668457031
0.0016069412231445312
0.0016176700592041016
0.0014221668243408203
0.0014171600341796875
0.0014104843139648438
0.0014219284057617188
0.001434326171875
0.0014357566833496094
0.0013582706451416016
0.0013523101806640625
0.0013575553894042969
0.0013508796691894531
0.0015082359313964844
0.0014755725860595703
0.0014450550079345703
0.0014412403106689453
0.001435995101928711
0.0014293193817138672
0.001558542251586914
0.0015177726745605469
0.0015132427215576172
0.0015077590942382812
0.0015130043029785156
0.001455068588256836
0.0014564990997314453
0.0014395713806152344
0.0014345645904541016
0.0016036033630371094
0.001581430435180664
0.0015454292297363281
0.0015223026275634766
0.0015113353729248047
0.0015497207641601562
0.0014791488647460938
0.0014636516571044922
0.0014829635620117188
0.0015685558319091797
0.0014772415161132812
0.0015728473663330078
0.001547098159790039
0.0015385150909423828
0.0015649795532226562
0.001542806625366211
0.0015010833740234375
0.001468658447265625
0.0014643669128417969
0.0014750957489013672
0.0014705657958984375
0.0015726089477539062
0.0015404224395751953
0.0015358924865722656
0.0015425682067871094
0.0015764236450195312
0.0016033649444580078
0.0015702247619628906
0.0015919208526611328
0.0015130043029785156
0.001489877700805664
0.0015132427215576172
0.0015239715576171875
0.0014674663543701172
0.0014688968658447266
0.001459360122680664
0.001535177230834961
0.0015478134155273438
0.0015828609466552734
0.0015685558319091797
0.001550436019897461
0.0016319751739501953
0.0015158653259277344
0.0014867782592773438
0.0014677047729492188
0.0014646053314208984
0.0014944076538085938
0.0015840530395507812
0.0015690326690673828
0.0015823841094970703
0.0015728473663330078
0.0016655921936035156
0.0015287399291992188
0.0015015602111816406
0.0014903545379638672
0.0015392303466796875
0.001476287841796875
0.0015571117401123047
0.0015456676483154297
0.0015392303466796875
0.001577615737915039
0.0015490055084228516
0.0014920234680175781
0.0014743804931640625
0.0014712810516357422
0.001522064208984375
0.0015311241149902344
0.0014922618865966797
0.0015652179718017578
0.001543283462524414
0.0015377998352050781
0.0015320777893066406
0.0015397071838378906
0.0015339851379394531
0.0015304088592529297
0.001535177230834961
0.0015730857849121094
0.0016148090362548828
0.0014925003051757812
0.0014824867248535156
0.0014612674713134766
0.001481771469116211
0.0015375614166259766
0.0015511512756347656
0.0015444755554199219
0.0015387535095214844
0.0015323162078857422
0.0018773078918457031
0.001516103744506836
0.0015349388122558594
0.0014729499816894531
0.0014760494232177734
0.0015406608581542969
0.001558065414428711
0.0016117095947265625
0.001554250717163086
0.001615285873413086
0.001674652099609375
0.0015735626220703125
0.0015571117401123047
0.0016613006591796875
0.0015561580657958984
0.0016100406646728516
0.0023345947265625
0.0021805763244628906
0.002165079116821289
0.00213623046875
0.002271890640258789
0.001967191696166992
0.001931905746459961
0.001947164535522461
0.0018737316131591797
0.001786947250366211
0.0018126964569091797
0.00176239013671875
0.001779794692993164
0.0018634796142578125
0.0017964839935302734
0.0019714832305908203
0.0019578933715820312
0.0019485950469970703
0.0019412040710449219
0.00194549560546875
0.001985311508178711
0.0017719268798828125
0.0017893314361572266
0.0017719268798828125
0.001753091812133789
0.0019757747650146484
0.0019485950469970703
0.0019054412841796875
0.0019066333770751953
0.0019030570983886719
0.0020513534545898438
0.0019516944885253906
0.0021619796752929688
0.0019307136535644531
0.0019032955169677734
0.0019428730010986328
0.0019073486328125
0.0018010139465332031
0.0017764568328857422
0.0017726421356201172
0.0018589496612548828
0.0019741058349609375
0.0019526481628417969
0.0019669532775878906
0.0028574466705322266
0.002462625503540039
0.0020999908447265625
0.001847982406616211
0.0017883777618408203
0.0017971992492675781
0.0017819404602050781
0.0019550323486328125
0.001954317092895508
0.0019516944885253906
0.0019109249114990234
0.0019338130950927734
0.0019125938415527344
0.0019297599792480469
0.0018472671508789062
0.0018291473388671875
0.0017926692962646484
0.0018856525421142578
0.0019683837890625
0.001955270767211914
0.001970529556274414
0.0019567012786865234
0.002051830291748047
0.0017783641815185547
0.0017902851104736328
0.0017714500427246094
0.0017580986022949219
0.001995086669921875
0.002139568328857422
0.002122640609741211
0.00202178955078125
0.002216815948486328
0.002252817153930664
0.0019459724426269531
0.0019505023956298828
0.001950979232788086
0.0019099712371826172
0.001901865005493164
0.0018634796142578125
0.0018010139465332031
0.001787424087524414
0.0017809867858886719
0.0017695426940917969
0.001984119415283203
0.0019578933715820312
0.001957416534423828
0.0019466876983642578
0.0019345283508300781
0.0017786026000976562
0.0017597675323486328
0.0017538070678710938
0.0017552375793457031
0.001745462417602539
0.0019488334655761719
0.0020074844360351562
0.0019865036010742188
0.0019664764404296875
0.0019538402557373047
0.0019216537475585938
0.001768350601196289
0.0017809867858886719
0.0017974376678466797
0.001767873764038086
0.001956939697265625
0.0019919872283935547
0.001918792724609375
0.00191497802734375
0.0017898082733154297
0.002022981643676758
0.0019762516021728516
0.001924276351928711
0.00191497802734375
0.0019445419311523438
0.001966238021850586
0.0019261837005615234
0.0019137859344482422
0.0019123554229736328
0.0017788410186767578
0.0018112659454345703
0.0017940998077392578
0.0017919540405273438
0.005353689193725586
0.002017498016357422
0.001833200454711914
0.0018401145935058594
0.0017879009246826172
0.0017821788787841797
0.0017940998077392578
0.001791238784790039
0.0020034313201904297
0.0020203590393066406
0.001981019973754883
0.002202749252319336
0.001984834671020508
0.0017979145050048828
0.0017924308776855469
0.0017774105072021484
0.0017688274383544922
0.0018596649169921875
0.0019702911376953125
0.0019588470458984375
0.001983642578125
0.0019464492797851562
0.0020301342010498047
0.0017898082733154297
0.001773834228515625
0.0017752647399902344
0.0017728805541992188
0.0017690658569335938
0.0019469261169433594
0.0019576549530029297
0.0019474029541015625
0.002053976058959961
0.001949310302734375
0.0020852088928222656
0.0017783641815185547
0.0017688274383544922
0.0017693042755126953
0.0017695426940917969
0.001973867416381836
0.0019257068634033203
0.0019237995147705078
0.001924276351928711
0.0018908977508544922
0.00200653076171875
0.0019440650939941406
0.0019297599792480469
0.0019137859344482422
0.0017757415771484375
0.0017864704132080078
0.0017805099487304688
0.0017714500427246094
0.0017995834350585938
0.0017690658569335938
0.0017631053924560547
0.0020012855529785156
0.001947164535522461
0.0019690990447998047
0.00194549560546875
0.001978158950805664
0.0017838478088378906
0.0018463134765625
0.0017774105072021484
0.0017731189727783203
0.0017898082733154297
0.001968860626220703
0.001971006393432617
0.0019779205322265625
0.001962423324584961
0.0020596981048583984
0.0017902851104736328
0.001766204833984375
0.0017576217651367188
0.0017628669738769531
0.0017628669738769531
0.0019462108612060547
0.0019562244415283203
0.0019991397857666016
0.001992464065551758
0.0019497871398925781
0.0019845962524414062
0.0017704963684082031
0.0018355846405029297
0.0017671585083007812
0.0018703937530517578
0.0036652088165283203
0.002155303955078125
0.001987934112548828
0.001959085464477539
0.0019505023956298828
0.0020334720611572266
0.0019674301147460938
0.0019333362579345703
0.0019502639770507812
0.001861572265625
0.0017857551574707031
0.001878976821899414
0.0017914772033691406
0.001781463623046875
0.001779317855834961
0.001773834228515625
0.001970052719116211
0.0020101070404052734
0.001978158950805664
0.0019516944885253906
0.0019266605377197266
0.001917123794555664
0.0017764568328857422
0.0017635822296142578
0.0017619132995605469
0.001760244369506836
0.0019481182098388672
0.001970052719116211
0.001954793930053711
0.0019659996032714844
0.0019464492797851562
0.002040863037109375
0.0017809867858886719
0.001775979995727539
0.001781463623046875
0.0017697811126708984
0.001979351043701172
0.0019235610961914062
0.0019173622131347656
0.002006053924560547
0.001882791519165039
0.001996278762817383
0.0019693374633789062
0.001924276351928711
0.0019214153289794922
0.0019159317016601562
0.0018353462219238281
0.0017867088317871094
0.0017807483673095703
0.0017681121826171875
0.00177001953125
0.001905679702758789
0.0020215511322021484
0.0019583702087402344
0.001955270767211914
0.0019414424896240234
0.0020494461059570312
0.0017921924591064453
0.001764059066772461
0.0017685890197753906
0.0017681121826171875
0.0017688274383544922
0.00197601318359375
0.002031564712524414
0.001997709274291992
0.0019342899322509766
0.0019538402557373047
0.0019583702087402344
0.001967906951904297
0.001955270767211914
0.0019538402557373047
0.0019614696502685547
0.0019383430480957031
0.0019712448120117188
0.0019478797912597656
0.0019729137420654297
0.0019435882568359375
0.0020513534545898438
0.001783609390258789
0.0017800331115722656
0.0017743110656738281
0.001767873764038086
0.0019867420196533203
0.0019350051879882812
0.0019342899322509766
0.0019447803497314453
0.0020401477813720703
0.002133607864379883
0.002010345458984375
0.0019974708557128906
0.0019674301147460938
0.0019352436065673828
0.001878499984741211
0.001779794692993164
0.0018014907836914062
0.0017905235290527344
0.0017924308776855469
0.001772165298461914
0.0020499229431152344
0.0020134449005126953
0.00196075439453125
0.0019643306732177734
0.002066373825073242
0.001856088638305664
0.001791238784790039
0.0017790794372558594
0.0017766952514648438
0.0017926692962646484
0.0020554065704345703
0.0020241737365722656
0.002025127410888672
0.0020105838775634766
0.0020935535430908203
0.0018830299377441406
0.001813650131225586
0.0018112659454345703
0.0019505023956298828
0.0018568038940429688
0.0018434524536132812
0.001874685287475586
0.0018377304077148438
0.0018260478973388672
0.0017991065979003906
0.0021250247955322266
0.0020537376403808594
0.00201416015625
0.002003908157348633
0.002017498016357422
0.0019202232360839844
0.0017940998077392578
0.002030611038208008
0.0017974376678466797
0.0018012523651123047
0.0018656253814697266
0.0017807483673095703
0.0019698143005371094
0.0017924308776855469
0.0017864704132080078
0.0020089149475097656
0.002161741256713867
0.0021610260009765625
0.001961946487426758
0.0020132064819335938
0.0021936893463134766
0.0019567012786865234
0.0019259452819824219
0.0019655227661132812
0.0021033287048339844
0.0019087791442871094
0.001873016357421875
0.0017800331115722656
0.0017821788787841797
0.0017902851104736328
0.0018267631530761719
0.0017898082733154297
0.0018465518951416016
0.001893758773803711
0.0018506050109863281
0.0017993450164794922
0.001790761947631836
0.0018270015716552734
0.0017838478088378906
0.0017886161804199219
0.0017795562744140625
0.0019605159759521484
0.001973867416381836
0.0019621849060058594
0.0021162033081054688
0.002063274383544922
0.0017790794372558594
0.0017826557159423828
0.0017876625061035156
0.0017735958099365234
0.0017714500427246094
0.0019621849060058594
0.0020253658294677734
0.001981019973754883
0.0019614696502685547
0.001959562301635742
0.002020120620727539
0.0017936229705810547
0.0017867088317871094
0.0017859935760498047
0.0017731189727783203
0.001857757568359375
0.0019731521606445312
0.0019626617431640625
0.0020503997802734375
0.001973867416381836
0.002064943313598633
0.0018775463104248047
0.0017819404602050781
0.0018680095672607422
0.0017876625061035156
0.0020117759704589844
0.0020132064819335938
0.0019464492797851562
0.0019428730010986328
0.00193023681640625
0.0020089149475097656
0.0019154548645019531
0.001781463623046875
0.00179290771484375
0.0017826557159423828
0.001781463623046875
0.0017766952514648438
0.003207683563232422
0.002339601516723633
0.0019462108612060547
0.001940011978149414
0.001665353775024414
0.0016384124755859375
0.001676797866821289
0.0016722679138183594
0.0017044544219970703
0.0020029544830322266
0.0019638538360595703
0.002044200897216797
0.002004384994506836
0.0019707679748535156
0.0018548965454101562
0.0018010139465332031
0.0017971992492675781
0.0018303394317626953
0.0017685890197753906
0.002060413360595703
0.001981973648071289
0.0019686222076416016
0.0019690990447998047
0.001969575881958008
0.0017979145050048828
0.0017819404602050781
0.00177001953125
0.0017764568328857422
0.0018570423126220703
0.0019807815551757812
0.001957416534423828
0.0019855499267578125
0.001955270767211914
0.002068758010864258
0.0017826557159423828
0.0017855167388916016
0.0017771720886230469
0.001771688461303711
0.0017805099487304688
0.0020058155059814453
0.0019693374633789062
0.0020439624786376953
0.001963376998901367
0.0019402503967285156
0.0018756389617919922
0.0018393993377685547
0.0017824172973632812
0.0017800331115722656
0.0017795562744140625
0.0019605159759521484
0.0019745826721191406
0.001959085464477539
0.0019588470458984375
0.001943826675415039
0.0019268989562988281
0.0017902851104736328
0.0017905235290527344
0.0017747879028320312
0.0017635822296142578
0.0018014907836914062
0.001970052719116211
0.0019698143005371094
0.001996755599975586
0.0019626617431640625
0.002105712890625
0.0017876625061035156
0.0017862319946289062
0.0017879009246826172
0.0017735958099365234
0.002028942108154297
0.0019545555114746094
0.0019404888153076172
0.001939535140991211
0.0018699169158935547
0.002076864242553711
0.001959562301635742
0.0019769668579101562
0.0019333362579345703
0.001931905746459961
0.002008199691772461
0.001941680908203125
0.0019347667694091797
0.0018239021301269531
0.0018069744110107422
0.0018031597137451172
0.0017845630645751953
0.0017871856689453125
0.0017943382263183594
0.00177764892578125
0.0024285316467285156
0.002078533172607422
0.0021469593048095703
0.0021524429321289062
0.0021529197692871094
0.0022225379943847656
0.0015120506286621094
0.0014605522155761719
0.00145721435546875
0.0014712810516357422
0.001477956771850586
0.0013873577117919922
0.0013790130615234375
0.0014004707336425781
0.0013806819915771484
0.0014185905456542969
0.0015444755554199219
0.0015463829040527344
0.0015325546264648438
0.0015268325805664062
0.0015370845794677734
0.0015416145324707031
0.0014188289642333984
0.0013806819915771484
0.0013871192932128906
0.0013794898986816406
0.0014028549194335938
0.0013744831085205078
0.0013744831085205078
0.0013766288757324219
0.0014071464538574219
0.0014545917510986328
0.0014600753784179688
0.0014796257019042969
0.0014379024505615234
0.0014417171478271484
0.001590728759765625
0.001486063003540039
0.0014672279357910156
0.001463174819946289
0.0014617443084716797
0.0014691352844238281
0.0015635490417480469
0.0015587806701660156
0.0015702247619628906
0.0015642642974853516
0.0016295909881591797
0.0014901161193847656
0.0014698505401611328
0.0014858245849609375
0.0014641284942626953
0.0014688968658447266
0.0015604496002197266
0.001543283462524414
0.0015904903411865234
0.0016210079193115234
0.0015978813171386719
0.0016369819641113281
0.0014996528625488281
0.0014922618865966797
0.0014913082122802734
0.0014848709106445312
0.0015091896057128906
0.001485586166381836
0.0014836788177490234
0.0014786720275878906
0.0015001296997070312
0.0014998912811279297
0.0015749931335449219
0.0015735626220703125
0.0015804767608642578
0.0021414756774902344
0.001627206802368164
0.0015442371368408203
0.0015063285827636719
0.0015354156494140625
0.0015053749084472656
0.0014951229095458984
0.0015950202941894531
0.0015838146209716797
0.0016100406646728516
0.0015938282012939453
0.0015749931335449219
0.0016834735870361328
0.0015108585357666016
0.0014913082122802734
0.0015325546264648438
0.0014925003051757812
0.0014989376068115234
0.0015058517456054688
0.001527547836303711
0.0014841556549072266
0.0014884471893310547
0.0015540122985839844
0.0015764236450195312
0.001566171646118164
0.001567840576171875
0.0015645027160644531
0.0016393661499023438
0.0014958381652832031
0.0014867782592773438
0.0015015602111816406
0.0014982223510742188
0.0015606880187988281
0.0015761852264404297
0.0016181468963623047
0.0015835762023925781
0.0015659332275390625
0.0015687942504882812
0.0015077590942382812
0.0014944076538085938
0.0014853477478027344
0.0015192031860351562
0.0019986629486083984
0.002331972122192383
0.0017442703247070312
0.0016067028045654297
0.0016980171203613281
0.0017812252044677734
0.0016372203826904297
0.0016705989837646484
0.001664876937866211
0.001558542251586914
0.0015285015106201172
0.0018491744995117188
0.0016205310821533203
0.001798391342163086
0.0016312599182128906
0.001619577407836914
0.0017590522766113281
0.0016984939575195312
0.0019404888153076172
0.0018362998962402344
0.0017609596252441406
0.0018336772918701172
0.0016717910766601562
0.0016415119171142578
0.0016109943389892578
0.0015902519226074219
0.001840353012084961
0.001964569091796875
0.0018930435180664062
0.0018336772918701172
0.0019216537475585938
0.0020122528076171875
0.002043485641479492
0.0019845962524414062
0.002033233642578125
0.001988649368286133
0.0019795894622802734
0.0017843246459960938
0.0018024444580078125
0.0018093585968017578
0.001798391342163086
0.0018970966339111328
0.0019676685333251953
0.0020618438720703125
0.002033233642578125
0.001965761184692383
0.002099275588989258
0.0017817020416259766
0.0017974376678466797
0.0019261837005615234
0.001957416534423828
0.002064228057861328
0.002025604248046875
0.001969575881958008
0.001966238021850586
0.002057790756225586
0.001861572265625
0.00185394287109375
0.0018467903137207031
0.0018362998962402344
0.001798391342163086
0.0018286705017089844
0.001787424087524414
0.0018160343170166016
0.0017986297607421875
0.0017962455749511719
0.0018901824951171875
0.002050638198852539
0.00196075439453125
0.0020389556884765625
0.001978158950805664
0.0020928382873535156
0.0018355846405029297
0.0018086433410644531
0.001802682876586914
0.0018138885498046875
0.0017952919006347656
0.001966714859008789
0.0019903182983398438
0.0019843578338623047
0.002081155776977539
0.001997709274291992
0.001871347427368164
0.0018041133880615234
0.001802682876586914
0.0018124580383300781
0.001800537109375
0.002008676528930664
0.0020236968994140625
0.002040863037109375
0.0020368099212646484
0.0022187232971191406
0.001992464065551758
0.0018134117126464844
0.001794576644897461
0.0017898082733154297
0.001794576644897461
0.0019099712371826172
0.0019767284393310547
0.00197601318359375
0.0019745826721191406
0.001989126205444336
0.002272367477416992
0.001996755599975586
0.001954793930053711
0.002002716064453125
0.0017955303192138672
0.0018053054809570312
0.0018012523651123047
0.0018801689147949219
0.0017931461334228516
0.0018239021301269531
0.001848459243774414
0.002051115036010742
0.001965761184692383
0.001966714859008789
0.001986265182495117
0.002002239227294922
0.0017940998077392578
0.0017914772033691406
0.001806497573852539
0.0017979145050048828
0.0017971992492675781
0.001967191696166992
0.0019922256469726562
0.0019609928131103516
0.001981496810913086
0.00206756591796875
0.0020170211791992188
0.0017819404602050781
0.0018551349639892578
0.0018050670623779297
0.001800537109375
0.0020008087158203125
0.0019598007202148438
0.0019495487213134766
0.001983642578125
0.0019562244415283203
0.0019941329956054688
0.0019550323486328125
0.001880645751953125
0.0018339157104492188
0.0018846988677978516
0.002077817916870117
0.0020449161529541016
0.0019850730895996094
0.001974344253540039
0.001976490020751953
0.0019605159759521484
0.0019910335540771484
0.0017850399017333984
0.0018038749694824219
0.0017962455749511719
0.001794576644897461
0.002001523971557617
0.0020487308502197266
0.0019855499267578125
0.0019614696502685547
0.0019690990447998047
0.0020172595977783203
0.001859903335571289
0.001798868179321289
0.0018036365509033203
0.0018002986907958984
0.0018002986907958984
0.0019800662994384766
0.0019609928131103516
0.0019631385803222656
0.001998424530029297
0.006762981414794922
0.0027878284454345703
0.0018618106842041016
0.00180816650390625
0.0016634464263916016
0.0016841888427734375
0.0017828941345214844
0.0018038749694824219
0.0017924308776855469
0.0018072128295898438
0.0018007755279541016
0.0019047260284423828
0.0018045902252197266
0.0018401145935058594
0.0018055438995361328
0.001794576644897461
0.0020227432250976562
0.0019614696502685547
0.0019516944885253906
0.0019583702087402344
0.0018739700317382812
0.0020406246185302734
0.0019757747650146484
0.0019512176513671875
0.001971721649169922
0.0019526481628417969
0.0021347999572753906
0.001974821090698242
0.0019707679748535156
0.0019495487213134766
0.0019466876983642578
0.0019965171813964844
0.0019507408142089844
0.001973867416381836
0.00199127197265625
0.001974344253540039
0.0020155906677246094
0.0018880367279052734
0.0018165111541748047
0.0018048286437988281
0.002018451690673828
0.001828908920288086
0.0018415451049804688
0.0017898082733154297
0.001817941665649414
0.001806497573852539
0.0018036365509033203
0.0019991397857666016
0.0020208358764648438
0.0020182132720947266
0.001988649368286133
0.001992464065551758
0.0019588470458984375
0.0017952919006347656
0.0018031597137451172
0.0018470287322998047
0.0018107891082763672
0.0020112991333007812
0.002023935317993164
0.001957416534423828
0.0019788742065429688
0.002073526382446289
0.0020151138305664062
0.001967906951904297
0.0019505023956298828
0.00194549560546875
0.0018694400787353516
0.0017971992492675781
0.0018110275268554688
0.0018019676208496094
0.0018029212951660156
0.0018041133880615234
0.0017969608306884766
0.001850128173828125
0.001767873764038086
0.0018041133880615234
0.0018048286437988281
0.0017955303192138672
0.0020780563354492188
0.0019731521606445312
0.0019927024841308594
0.001989126205444336
0.002086639404296875
0.00186920166015625
0.001798391342163086
0.0017931461334228516
0.001959085464477539
0.001911163330078125
0.0020384788513183594
0.0019724369049072266
0.002060413360595703
0.0019855499267578125
0.0019321441650390625
0.0019223690032958984
0.00183868408203125
0.0018548965454101562
0.0018062591552734375
0.0018014907836914062
0.0017964839935302734
0.0017969608306884766
0.001806020736694336
0.0018055438995361328
0.0018131732940673828
0.0020194053649902344
0.002012968063354492
0.0019669532775878906
0.001973867416381836
0.0019986629486083984
0.002002716064453125
0.001991748809814453
0.001979827880859375
0.0020689964294433594
0.0019659996032714844
0.0019783973693847656
0.00180816650390625
0.0018062591552734375
0.0018050670623779297
0.0018122196197509766
0.0018739700317382812
0.0018029212951660156
0.0018002986907958984
0.0017964839935302734
0.0018055438995361328
0.002046346664428711
0.002197742462158203
0.0021512508392333984
0.0020186901092529297
0.001995563507080078
0.00223541259765625
0.0020101070404052734
0.002176046371459961
0.001967191696166992
0.001957416534423828
0.0018825531005859375
0.0018422603607177734
0.0018525123596191406
0.0018849372863769531
0.0017974376678466797
0.0018236637115478516
0.0018358230590820312
0.0018877983093261719
0.001861572265625
0.0018095970153808594
0.0019524097442626953
0.0020575523376464844
0.0019752979278564453
0.001968860626220703
0.0019936561584472656
0.0019991397857666016
0.0018033981323242188
0.0018346309661865234
0.0018303394317626953
0.001833200454711914
0.0017974376678466797
0.002010822296142578
0.0019903182983398438
0.0019683837890625
0.0019881725311279297
0.0019676685333251953
0.001975536346435547
0.0018067359924316406
0.0018475055694580078
0.0017905235290527344
0.0017960071563720703
0.0018720626831054688
0.0018160343170166016
0.001804351806640625
0.001806020736694336
0.0017991065979003906
0.0018973350524902344
0.0019791126251220703
0.0020287036895751953
0.001968860626220703
0.0019731521606445312
0.0020999908447265625
0.0018458366394042969
0.0018045902252197266
0.0018138885498046875
0.001796722412109375
0.002027750015258789
0.001969575881958008
0.0019609928131103516
0.001992464065551758
0.001993417739868164
0.0020296573638916016
0.00200653076171875
0.0020656585693359375
0.0019507408142089844
0.001847982406616211
0.0017931461334228516
0.0018570423126220703
0.0017931461334228516
0.0018246173858642578
0.00180816650390625
0.001802682876586914
0.002004384994506836
0.001995563507080078
0.001972675323486328
0.002038717269897461
0.0019638538360595703
0.001991748809814453
0.0018014907836914062
0.0017948150634765625
0.0018315315246582031
0.0018210411071777344
0.0018427371978759766
0.00180816650390625
0.0018055438995361328
0.001806020736694336
0.0018084049224853516
0.002026796340942383
0.0022580623626708984
0.0021779537200927734
0.0020470619201660156
0.002082347869873047
0.002232074737548828
0.0019876956939697266
0.0019605159759521484
0.0019559860229492188
0.001992464065551758
0.002022981643676758
0.001987934112548828
0.001966238021850586
0.0019779205322265625
0.001954793930053711
0.0019118785858154297
0.0018486976623535156
0.0018742084503173828
0.001789093017578125
0.0017933845520019531
0.0018990039825439453
0.002041339874267578
0.002050638198852539
0.0019664764404296875
0.002046346664428711
0.0019698143005371094
0.0019757747650146484
0.0018475055694580078
0.0018143653869628906
0.0018076896667480469
0.0019276142120361328
0.0018029212951660156
0.0018129348754882812
0.0018420219421386719
0.0018336772918701172
0.0018131732940673828
0.001971006393432617
0.0019812583923339844
0.0019807815551757812
0.0019693374633789062
0.0019745826721191406
0.00220489501953125
0.0019850730895996094
0.0018455982208251953
0.001898050308227539
0.001870870590209961
0.0020437240600585938
0.001981973648071289
0.0019683837890625
0.0019659996032714844
0.0019526481628417969
0.002052783966064453
0.002024412155151367
0.00185394287109375
0.0018169879913330078
0.0018000602722167969
0.001804351806640625
0.0018434524536132812
0.0017919540405273438
0.0018153190612792969
0.0018053054809570312
0.001936197280883789
0.0020482540130615234
0.002055644989013672
0.0020339488983154297
0.0020236968994140625
0.0020813941955566406
0.0018854141235351562
0.001859903335571289
0.001796722412109375
0.0017917156219482422
0.0018076896667480469
0.0019888877868652344
0.002015352249145508
0.0020380020141601562
0.002020597457885742
0.0023026466369628906
0.002023935317993164
0.0018775463104248047
0.0018804073333740234
0.002093791961669922
0.0018818378448486328
0.0018987655639648438
0.001810312271118164
0.0017933845520019531
0.001794576644897461
0.0018088817596435547
0.0020341873168945312
0.001981973648071289
0.001997232437133789
0.002031087875366211
0.0019991397857666016
0.001989126205444336
0.0019638538360595703
0.001986980438232422
0.0019638538360595703
0.001962423324584961
0.0020210742950439453
0.001986980438232422
0.001996755599975586
0.001959562301635742
0.002108335494995117
0.002183198928833008
0.0020678043365478516
0.002031087875366211
0.0019769668579101562
0.0019063949584960938
0.0018737316131591797
0.001936197280883789
0.001840353012084961
0.0017974376678466797
0.001798868179321289
0.0018563270568847656
0.002008676528930664
0.0020570755004882812
0.0019752979278564453
0.0019659996032714844
0.001971721649169922
0.001991748809814453
0.0018007755279541016
0.0017971992492675781
0.0018122196197509766
0.001810312271118164
0.0018990039825439453
0.0020933151245117188
0.001986980438232422
0.0020971298217773438
0.002058267593383789
0.0022296905517578125
0.0018405914306640625
0.0018682479858398438
0.0018002986907958984
0.0017976760864257812
0.002050161361694336
0.001986980438232422
0.0019941329956054688
0.001986265182495117
0.0019788742065429688
0.00200653076171875
0.001979351043701172
0.001961231231689453
0.001955747604370117
0.0019550323486328125
0.0020241737365722656
0.00196075439453125
0.0018553733825683594
0.0021529197692871094
0.001898050308227539
0.0019073486328125
0.0020904541015625
0.0020287036895751953
0.0020728111267089844
0.0020265579223632812
0.002081155776977539
0.0015246868133544922
0.0014810562133789062
0.0014717578887939453
0.00147247314453125
0.0014693737030029297
0.0014317035675048828
0.0014300346374511719
0.002496957778930664
0.0017905235290527344
0.0015609264373779297
0.0016486644744873047
0.001611948013305664
0.0015978813171386719
0.0015985965728759766
0.0015861988067626953
0.0016536712646484375
0.001512289047241211
0.0015277862548828125
0.0015306472778320312
0.0014996528625488281
0.0015175342559814453
0.0014998912811279297
0.0015494823455810547
0.0015044212341308594
0.0015208721160888672
0.0015997886657714844
0.0016536712646484375
0.0017120838165283203
0.0016665458679199219
0.0016498565673828125
0.0016341209411621094
0.0015571117401123047
0.0015263557434082031
0.0015614032745361328
0.0015208721160888672
0.001516580581665039
0.0016179084777832031
0.0016024112701416016
0.0015988349914550781
0.0016179084777832031
0.0016105175018310547
0.0016603469848632812
0.0015289783477783203
0.0015194416046142578
0.001516103744506836
0.0015146732330322266
0.0015501976013183594
0.0015947818756103516
0.0015361309051513672
0.0015218257904052734
0.001519918441772461
0.0016219615936279297
0.0016498565673828125
0.0016014575958251953
0.0016007423400878906
0.0015974044799804688
0.0015900135040283203
0.0015358924865722656
0.0015287399291992188
0.0015354156494140625
0.0015437602996826172
0.0015261173248291016
0.0016255378723144531
0.0016324520111083984
0.0015976428985595703
0.001600027084350586
0.001592874526977539
0.0016531944274902344
0.0015263557434082031
0.0015184879302978516
0.0015113353729248047
0.0015134811401367188
0.0016171932220458984
0.001529693603515625
0.0015828609466552734
0.0015630722045898438
0.0018055438995361328
0.0016715526580810547
0.0016639232635498047
0.0016384124755859375
0.0016245841979980469
0.0016148090362548828
0.0017027854919433594
0.0015408992767333984
0.0015254020690917969
0.0015323162078857422
0.001552581787109375
0.0015244483947753906
0.0016181468963623047
0.001608133316040039
0.0016319751739501953
0.00160980224609375
0.0016088485717773438
0.0015473365783691406
0.0015599727630615234
0.0015344619750976562
0.0015289783477783203
0.0015854835510253906
0.0016646385192871094
0.001634836196899414
0.001615762710571289
0.0016009807586669922
0.0016016960144042969
0.002207040786743164
0.0017769336700439453
0.0015702247619628906
0.0015697479248046875
0.001573801040649414
0.001678466796875
0.0016677379608154297
0.0016093254089355469
0.0016055107116699219
0.0016033649444580078
0.0016694068908691406
0.0015380382537841797
0.0015294551849365234
0.0015192031860351562
0.0015566349029541016
0.0016338825225830078
0.0016150474548339844
0.0016436576843261719
0.0016417503356933594
0.0016942024230957031
0.001726388931274414
0.0015451908111572266
0.0015177726745605469
0.001550436019897461
0.0015263557434082031
0.0016634464263916016
0.0020411014556884766
0.002040386199951172
0.0019228458404541016
0.0019121170043945312
0.001903533935546875
0.0018396377563476562
0.0018076896667480469
0.0018389225006103516
0.001847982406616211
0.0021042823791503906
0.0020067691802978516
0.0019216537475585938
0.0018689632415771484
0.0018639564514160156
0.002092123031616211
0.0022525787353515625
0.0020754337310791016
0.00205230712890625
0.0020859241485595703
0.0022754669189453125
0.0020084381103515625
0.002026796340942383
0.0018796920776367188
0.001840353012084961
0.0018684864044189453
0.001809835433959961
0.0018563270568847656
0.0017998218536376953
0.001800537109375
0.0019066333770751953
0.002039194107055664
0.001984834671020508
0.0019807815551757812
0.0020728111267089844
0.0021305084228515625
0.0018475055694580078
0.0018367767333984375
0.0018126964569091797
0.0018579959869384766
0.0018606185913085938
0.0018017292022705078
0.0018162727355957031
0.0018134117126464844
0.0018839836120605469
0.0018415451049804688
0.0018115043640136719
0.001859426498413086
0.0020895004272460938
0.0018839836120605469
0.0018808841705322266
0.0018434524536132812
0.0018436908721923828
0.0018093585968017578
0.0018219947814941406
0.0018460750579833984
0.0019948482513427734
0.002026796340942383
0.002020597457885742
0.0019834041595458984
0.002032041549682617
0.002019166946411133
0.0018663406372070312
0.0018086433410644531
0.0018000602722167969
0.0018224716186523438
0.001852273941040039
0.001825094223022461
0.0017933845520019531
0.0018842220306396484
0.0018072128295898438
0.002124309539794922
0.0019974708557128906
0.0020363330841064453
0.001998424530029297
0.0018649101257324219
0.0020341873168945312
0.001983642578125
0.001983165740966797
0.001987934112548828
0.0019779205322265625
0.0020356178283691406
0.0020189285278320312
0.002002716064453125
0.0018589496612548828
0.0018019676208496094
0.001836538314819336
0.0018036365509033203
0.0018019676208496094
0.0018312931060791016
0.0018019676208496094
0.0017993450164794922
0.002056598663330078
0.002019166946411133
0.002115964889526367
0.0020444393157958984
0.0020608901977539062
0.001856088638305664
0.0018706321716308594
0.0019674301147460938
0.0018992424011230469
0.0020072460174560547
0.001916646957397461
0.0018496513366699219
0.0018465518951416016
0.0018017292022705078
0.0021185874938964844
0.002115964889526367
0.0020325183868408203
0.0020055770874023438
0.0020291805267333984
0.002010345458984375
0.0019023418426513672
0.0018894672393798828
0.0018138885498046875
0.0018072128295898438
0.0018007755279541016
0.0019910335540771484
0.002051115036010742
0.0021224021911621094
0.002029895782470703
0.0020601749420166016
0.002278566360473633
0.002020597457885742
0.0019843578338623047
0.0019915103912353516
0.001997709274291992
0.002040386199951172
0.0020020008087158203
0.0021567344665527344
0.002100229263305664
0.0019087791442871094
0.0018858909606933594
0.0018470287322998047
0.001855611801147461
0.0018053054809570312
0.0018069744110107422
0.001874685287475586
0.0020804405212402344
0.0020537376403808594
0.00206756591796875
0.002054452896118164
0.0020742416381835938
0.002158641815185547
0.001924276351928711
0.0018603801727294922
0.0018422603607177734
0.0018067359924316406
0.002159595489501953
0.002063751220703125
0.0020093917846679688
0.0018875598907470703
0.0019032955169677734
0.0019137859344482422
0.0018734931945800781
0.0018639564514160156
0.0018210411071777344
0.0018463134765625
0.001809835433959961
0.002193927764892578
0.002042055130004883
0.0020194053649902344
0.0020530223846435547
0.002208709716796875
0.0018761157989501953
0.0018851757049560547
0.0018031597137451172
0.0018622875213623047
0.0018603801727294922
0.0022203922271728516
0.0018606185913085938
0.0019414424896240234
0.0018782615661621094
0.0018169879913330078
0.0018887519836425781
0.001875162124633789
0.0018758773803710938
0.001802682876586914
0.0018053054809570312
0.0019915103912353516
0.00203704833984375
0.0020287036895751953
0.0020246505737304688
0.002022266387939453
0.0021178722381591797
0.001847982406616211
0.001856088638305664
0.0018966197967529297
0.0018699169158935547
0.0021555423736572266
0.002011537551879883
0.001986980438232422
0.0019919872283935547
0.0019850730895996094
0.0020940303802490234
0.0019009113311767578
0.0018625259399414062
0.0018756389617919922
0.0019404888153076172
0.001926422119140625
0.001859426498413086
0.0018415451049804688
0.0018548965454101562
0.0018148422241210938
0.0018126964569091797
0.0020024776458740234
0.0020520687103271484
0.002023458480834961
0.002038240432739258
0.002064943313598633
0.002121448516845703
0.0018990039825439453
0.0018069744110107422
0.0018057823181152344
0.0018076896667480469
0.001867055892944336
0.0019216537475585938
0.0018625259399414062
0.001844644546508789
0.0018973350524902344
0.0019140243530273438
0.0018525123596191406
0.0018770694732666016
0.0018146038055419922
0.001861572265625
0.0020575523376464844
0.002010345458984375
0.002003908157348633
0.0019903182983398438
0.001990795135498047
0.0021677017211914062
0.0020723342895507812
0.0019490718841552734
0.0019097328186035156
0.0019216537475585938
0.0018620491027832031
0.001861572265625
0.0018045902252197266
0.0018525123596191406
0.001800537109375
0.0018177032470703125
0.0020537376403808594
0.002034425735473633
0.00211334228515625
0.002110004425048828
0.0021092891693115234
0.0018978118896484375
0.0073354244232177734
0.0022721290588378906
0.0021131038665771484
0.0019664764404296875
0.0017733573913574219
0.0017080307006835938
0.0016829967498779297
0.0016994476318359375
0.0016894340515136719
0.0018558502197265625
0.0020623207092285156
0.0020456314086914062
0.0020346641540527344
0.0020394325256347656
0.0020036697387695312
0.0018990039825439453
0.0018463134765625
0.0018444061279296875
0.001844167709350586
0.0018279552459716797
0.0018167495727539062
0.0018947124481201172
0.0019192695617675781
0.001861572265625
0.0019307136535644531
0.0020477771759033203
0.002026081085205078
0.0020804405212402344
0.0020444393157958984
0.0022821426391601562
0.0020389556884765625
0.0020155906677246094
0.0019469261169433594
0.001861572265625
0.0018506050109863281
0.0019428730010986328
0.0019431114196777344
0.001856088638305664
0.0018513202667236328
0.0018115043640136719
0.0018515586853027344
0.0018200874328613281
0.0018215179443359375
0.0018072128295898438
0.00197601318359375
0.002115488052368164
0.002042055130004883
0.0020978450775146484
0.0020406246185302734
0.0020761489868164062
0.0018961429595947266
0.002032756805419922
0.0019011497497558594
0.001871347427368164
0.0019032955169677734
0.0018727779388427734
0.0018570423126220703
0.0018460750579833984
0.0018076896667480469
0.0018150806427001953
0.0020020008087158203
0.0020449161529541016
0.002031087875366211
0.0020325183868408203
0.0020325183868408203
0.0020329952239990234
0.0018885135650634766
0.0018897056579589844
0.0018482208251953125
0.0018432140350341797
0.0018715858459472656
0.0018155574798583984
0.0019254684448242188
0.0018506050109863281
0.0018126964569091797
0.0020782947540283203
0.0020253658294677734
0.0020062923431396484
0.001935720443725586
0.0018544197082519531
0.0020270347595214844
0.0020494461059570312
0.0019998550415039062
0.0019876956939697266
0.001994609832763672
0.002007007598876953
0.0018126964569091797
0.0019419193267822266
0.0019195079803466797
0.0018663406372070312
0.001867532730102539
0.0018465518951416016
0.0018811225891113281
0.0018169879913330078
0.0018031597137451172
0.0018062591552734375
0.0020666122436523438
0.002091646194458008
0.002036571502685547
0.0020711421966552734
0.0020492076873779297
0.0019419193267822266
0.0018625259399414062
0.001882791519165039
0.001867532730102539
0.0018811225891113281
0.0018565654754638672
0.0018126964569091797
0.0018172264099121094
0.001819610595703125
0.00180816650390625
0.0020003318786621094
0.002066373825073242
0.0020575523376464844
0.0020394325256347656
0.0020287036895751953
0.0019910335540771484
0.0018744468688964844
0.0018186569213867188
0.001844167709350586
0.0018510818481445312
0.0018835067749023438
0.00193023681640625
0.0018947124481201172
0.0018839836120605469
0.0018076896667480469
0.0020933151245117188
0.0020186901092529297
0.0019991397857666016
0.001987934112548828
0.002007722854614258
0.0020389556884765625
0.0019931793212890625
0.001996755599975586
0.0020117759704589844
0.0019099712371826172
0.0018837451934814453
0.0018682479858398438
0.0018453598022460938
0.0019352436065673828
0.0018634796142578125
0.0018146038055419922
0.002001047134399414
0.002041339874267578
0.002032756805419922
0.002061605453491211
0.0020399093627929688
0.0021758079528808594
0.0018794536590576172
0.0018663406372070312
0.001819610595703125
0.0018658638000488281
0.0018839836120605469
0.001848459243774414
0.0018053054809570312
0.00186920166015625
0.0018541812896728516
0.002094268798828125
0.0020258426666259766
0.0020046234130859375
0.0018668174743652344
0.0018184185028076172
0.002031087875366211
0.0019998550415039062
0.001989126205444336
0.0020258426666259766
0.002010822296142578
0.002040863037109375
0.002017498016357422
0.002024412155151367
0.0020017623901367188
0.0018765926361083984
0.002085447311401367
0.0020215511322021484
0.0020036697387695312
0.0019927024841308594
0.0019936561584472656
0.0020377635955810547
0.002002239227294922
0.001993417739868164
0.002071380615234375
0.0020630359649658203
0.0020656585693359375
0.0020334720611572266
0.0019958019256591797
0.0019266605377197266
0.0018815994262695312
0.0018796920776367188
0.002071857452392578
0.0022432804107666016
0.002256631851196289
0.0022313594818115234
0.002070188522338867
0.0023026466369628906
0.002040386199951172
0.002039194107055664
0.0020003318786621094
0.0022497177124023438
0.002044200897216797
0.001920461654663086
0.0018846988677978516
0.0019335746765136719
0.0018830299377441406
0.0020151138305664062
0.001920938491821289
0.0019583702087402344
0.0018646717071533203
0.001859903335571289
0.0018630027770996094
0.0021066665649414062
0.0020601749420166016
0.0020432472229003906
0.002040863037109375
0.002045869827270508
0.0018939971923828125
0.0018622875213623047
0.0018892288208007812
0.0018568038940429688
0.001844644546508789
0.001995563507080078
0.002087831497192383
0.002047300338745117
0.0021033287048339844
0.002222776412963867
0.002119779586791992
0.0018908977508544922
0.0018856525421142578
0.0018858909606933594
0.0018680095672607422
0.0020885467529296875
0.0020182132720947266
0.0020084381103515625
0.0018732547760009766
0.0018582344055175781
0.0020499229431152344
0.002015352249145508
0.002006053924560547
0.0020470619201660156
0.0020062923431396484
0.002058744430541992
0.0020151138305664062
0.002022981643676758
0.0020058155059814453
0.002010345458984375
0.0020265579223632812
0.0018897056579589844
0.0018472671508789062
0.0019307136535644531
0.0018680095672607422
0.001889944076538086
0.002040386199951172
0.002223491668701172
0.002297639846801758
0.0021266937255859375
0.0021038055419921875
0.0022187232971191406
0.0018887519836425781
0.001867055892944336
0.0018646717071533203
0.0024614334106445312
0.0021185874938964844
0.00685572624206543
0.002078533172607422
0.0019259452819824219
0.0018968582153320312
0.0021011829376220703
0.0014088153839111328
0.0014307498931884766
0.001383066177368164
0.0014491081237792969
0.001392364501953125
0.0015523433685302734
0.0015912055969238281
0.001552581787109375
0.00154876708984375
0.0015177726745605469
0.0016074180603027344
0.0016396045684814453
0.0015974044799804688
0.0016047954559326172
0.0015881061553955078
0.001592397689819336
0.0014405250549316406
0.0014390945434570312
0.0014960765838623047
0.001516580581665039
0.0015902519226074219
0.0016942024230957031
0.0017201900482177734
0.001638174057006836
0.0016248226165771484
0.0016169548034667969
0.0015583038330078125
0.001531839370727539
0.0015263557434082031
0.0015485286712646484
0.0015718936920166016
0.0016973018646240234
0.00164794921875
0.0016379356384277344
0.0016391277313232422
0.0018534660339355469
0.001617431640625
0.0015785694122314453
0.0015592575073242188
0.0015914440155029297
