0.003031015396118164
0.00128173828125
0.0013196468353271484
0.0013837814331054688
0.001374959945678711
0.0013425350189208984
0.0013275146484375
0.0013213157653808594
0.0013797283172607422
0.0017077922821044922
0.001544952392578125
0.0015256404876708984
0.0015571117401123047
0.0015645027160644531
0.0017254352569580078
0.0017573833465576172
0.001674652099609375
0.0017175674438476562
0.0016739368438720703
0.001720428466796875
0.0016579627990722656
0.0017864704132080078
0.0017516613006591797
0.002417325973510742
0.0018239021301269531
0.0018329620361328125
0.0018954277038574219
0.0025751590728759766
0.0018680095672607422
0.0029730796813964844
0.0017223358154296875
0.0017054080963134766
0.0021810531616210938
0.0018925666809082031
0.0017313957214355469
0.0017600059509277344
0.0015685558319091797
0.0016682147979736328
0.0015685558319091797
0.0016226768493652344
0.0015571117401123047
0.0013804435729980469
0.0013813972473144531
0.001397848129272461
0.0015075206756591797
0.0015256404876708984
0.0014879703521728516
0.0015726089477539062
0.0015435218811035156
0.0015685558319091797
0.0014281272888183594
0.001434326171875
0.0014755725860595703
0.0014140605926513672
0.0014240741729736328
0.00154876708984375
0.0016748905181884766
0.0015532970428466797
0.0015816688537597656
0.0015544891357421875
0.0019140243530273438
0.0016820430755615234
0.0016956329345703125
0.001653432846069336
0.002035379409790039
0.001795053482055664
0.0018203258514404297
0.0018529891967773438
0.0017096996307373047
0.0018513202667236328
0.001499176025390625
0.0014324188232421875
0.0014727115631103516
0.0014400482177734375
0.0012502670288085938
0.0012021064758300781
0.0014142990112304688
0.0013539791107177734
0.0012199878692626953
0.0012385845184326172
0.001211404800415039
0.001222848892211914
0.0012276172637939453
0.0012102127075195312
0.0012331008911132812
0.0012099742889404297
0.0012242794036865234
0.0012063980102539062
0.001222848892211914
0.0012028217315673828
0.0012392997741699219
0.0012295246124267578
0.0012543201446533203
0.0012123584747314453
0.00142669677734375
0.0014734268188476562
0.001379251480102539
0.0014891624450683594
0.0014488697052001953
0.0014226436614990234
0.0014760494232177734
0.0014812946319580078
0.0014433860778808594
0.0014710426330566406
0.0014214515686035156
0.00176239013671875
0.0015630722045898438
0.0015347003936767578
0.001844167709350586
0.00170135498046875
0.0017826557159423828
0.0019025802612304688
0.001972198486328125
0.0019283294677734375
0.0020170211791992188
0.0014297962188720703
0.0014297962188720703
0.0014047622680664062
0.0014026165008544922
0.001802682876586914
0.0014717578887939453
0.0014369487762451172
0.0014500617980957031
0.0014469623565673828
0.0015323162078857422
0.0014986991882324219
0.0014810562133789062
0.0017406940460205078
0.0015778541564941406
0.0015270709991455078
0.0015125274658203125
0.001552581787109375
0.0017004013061523438
0.0015454292297363281
0.0015172958374023438
0.0014109611511230469
0.0016138553619384766
0.001474142074584961
0.001374959945678711
0.0019087791442871094
0.0016880035400390625
0.0015702247619628906
0.0013909339904785156
0.001264333724975586
0.0013000965118408203
0.00130462646484375
0.0013895034790039062
0.001383066177368164
0.0015573501586914062
0.0016281604766845703
0.0018358230590820312
0.0019173622131347656
0.0018706321716308594
0.004653453826904297
0.009890079498291016
0.001438140869140625
0.0013415813446044922
0.0015163421630859375
0.001379251480102539
0.0013811588287353516
0.001428842544555664
0.0014729499816894531
0.0015251636505126953
0.0031943321228027344
0.001355886459350586
0.001341104507446289
0.0014183521270751953
0.0015468597412109375
0.001550436019897461
0.0014052391052246094
0.001989126205444336
0.001428365707397461
0.0015583038330078125
0.0015027523040771484
0.0027599334716796875
0.0028944015502929688
0.0014426708221435547
0.0015032291412353516
0.0014262199401855469
0.0014140605926513672
0.0016078948974609375
0.0017132759094238281
0.0014338493347167969
0.0016131401062011719
0.0021522045135498047
0.0016698837280273438
0.00150299072265625
0.0014564990997314453
0.0017080307006835938
0.0014345645904541016
0.001550912857055664
0.0018801689147949219
0.0018534660339355469
0.0017843246459960938
0.0019273757934570312
0.002003908157348633
0.002019166946411133
0.0018544197082519531
0.0018825531005859375
0.0018775463104248047
0.0019631385803222656
0.0020401477813720703
0.0020639896392822266
0.001973867416381836
0.0021779537200927734
0.002251148223876953
0.002035856246948242
0.0021882057189941406
0.0019872188568115234
0.002001523971557617
0.0020058155059814453
0.0019478797912597656
0.0019669532775878906
0.002021312713623047
0.0020067691802978516
0.002093076705932617
0.0021524429321289062
0.002064943313598633
0.0021104812622070312
0.0019686222076416016
0.0020902156829833984
0.001954793930053711
0.001955270767211914
0.002032041549682617
0.0020592212677001953
0.0019669532775878906
0.0018410682678222656
0.0018434524536132812
0.0019259452819824219
0.001893758773803711
0.002093791961669922
0.0018434524536132812
0.001954793930053711
0.0019500255584716797
0.0019457340240478516
0.0018396377563476562
0.002040386199951172
0.001995086669921875
0.001955747604370117
0.0020189285278320312
0.0020492076873779297
0.002151966094970703
0.0018470287322998047
0.0020139217376708984
0.0018908977508544922
0.0018439292907714844
0.002000570297241211
0.0019686222076416016
0.001950979232788086
0.0023648738861083984
0.002754688262939453
0.002016305923461914
0.0021779537200927734
0.011331796646118164
0.004143953323364258
0.0022695064544677734
0.00289154052734375
0.0017635822296142578
0.0018172264099121094
0.0015225410461425781
0.0015137195587158203
0.0014328956604003906
0.001611471176147461
0.0014607906341552734
0.0017468929290771484
0.0015797615051269531
0.0014832019805908203
0.0014553070068359375
0.0014188289642333984
0.0021038055419921875
0.0015141963958740234
0.0014979839324951172
0.0014698505401611328
0.0014469623565673828
0.0014400482177734375
0.001539468765258789
0.00153350830078125
0.001401662826538086
0.0014002323150634766
0.001369476318359375
0.0014324188232421875
0.0013861656188964844
0.0013666152954101562
0.001283884048461914
0.0013358592987060547
0.0013246536254882812
0.001361846923828125
0.0016074180603027344
0.00136566162109375
0.0013127326965332031
0.001252889633178711
0.0011947154998779297
0.0020580291748046875
0.0018050670623779297
0.002384185791015625
0.0020771026611328125
0.0021791458129882812
0.0020134449005126953
0.002038717269897461
0.0023539066314697266
0.0018389225006103516
0.0018572807312011719
0.001466512680053711
0.0015239715576171875
0.0014281272888183594
0.0022096633911132812
0.001562356948852539
0.0014865398406982422
0.0013842582702636719
0.0012450218200683594
0.001737356185913086
0.0016574859619140625
0.001832723617553711
0.0016283988952636719
0.00176239013671875
0.0018720626831054688
0.0014519691467285156
0.0016963481903076172
0.001821756362915039
0.002210855484008789
0.002129077911376953
0.0018956661224365234
0.002086162567138672
0.0015926361083984375
0.0014195442199707031
0.0014257431030273438
0.0018684864044189453
0.0016798973083496094
0.0017848014831542969
0.0015285015106201172
0.0016489028930664062
0.0020856857299804688
0.0022363662719726562
0.0028057098388671875
0.0018661022186279297
0.001981496810913086
0.002102375030517578
0.0018932819366455078
0.0019783973693847656
0.001798391342163086
0.001712799072265625
0.0019049644470214844
0.0021865367889404297
0.0014002323150634766
0.0015594959259033203
0.001577138900756836
0.001462697982788086
0.0014696121215820312
0.0014939308166503906
0.0014412403106689453
0.0014183521270751953
0.0014128684997558594
0.0014226436614990234
0.0015988349914550781
0.0014913082122802734
0.0015683174133300781
0.002000093460083008
0.001435995101928711
0.0016460418701171875
0.0015976428985595703
0.0013947486877441406
0.00160980224609375
0.0019652843475341797
0.0015101432800292969
0.0014772415161132812
0.001600027084350586
0.002062082290649414
0.0017125606536865234
0.0018811225891113281
0.001497507095336914
0.0015873908996582031
0.001497507095336914
0.0014863014221191406
0.001680612564086914
0.0016143321990966797
0.0015254020690917969
0.0017359256744384766
0.0018584728240966797
0.0018422603607177734
0.0017080307006835938
0.0015933513641357422
0.0015838146209716797
0.0016460418701171875
0.00152587890625
0.0013675689697265625
0.0015799999237060547
0.0013377666473388672
0.0013399124145507812
0.0014126300811767578
0.002616405487060547
0.0017085075378417969
0.0015659332275390625
0.00140380859375
0.0014319419860839844
0.0014996528625488281
0.0015289783477783203
0.0014972686767578125
0.00153350830078125
0.0015079975128173828
0.0016238689422607422
0.0015108585357666016
0.0016605854034423828
0.001865386962890625
0.002370119094848633
0.00164031982421875
0.0014495849609375
0.0016067028045654297
0.0025529861450195312
0.0018925666809082031
0.0018014907836914062
0.0018210411071777344
0.0019407272338867188
0.002019166946411133
0.0019915103912353516
0.0015766620635986328
0.001566171646118164
0.0014650821685791016
0.0015861988067626953
0.0014743804931640625
0.001865386962890625
0.0017502307891845703
0.0019359588623046875
0.001950979232788086
0.0019550323486328125
0.00196075439453125
0.0018801689147949219
0.0015392303466796875
0.0017037391662597656
0.00189971923828125
0.001577615737915039
0.0016446113586425781
0.00154876708984375
0.0015327930450439453
0.001556396484375
0.0022602081298828125
0.0016965866088867188
0.001592874526977539
0.0014317035675048828
0.001538991928100586
0.0014431476593017578
0.0014095306396484375
0.0014319419860839844
0.0014107227325439453
0.0014047622680664062
0.001405477523803711
0.0012459754943847656
0.0012104511260986328
0.0012106895446777344
0.0011899471282958984
0.0011875629425048828
0.001207590103149414
0.0011668205261230469
0.0012307167053222656
0.0011782646179199219
0.0011739730834960938
0.001161813735961914
0.0011670589447021484
0.0011665821075439453
0.0012340545654296875
0.0012040138244628906
0.001260995864868164
0.0011754035949707031
0.0011763572692871094
0.001397848129272461
0.0012035369873046875
0.001203298568725586
0.0011928081512451172
0.0012156963348388672
0.0011949539184570312
0.0011975765228271484
0.0011801719665527344
0.001169443130493164
0.0015940666198730469
0.0013973712921142578
0.001218557357788086
0.0011882781982421875
0.0011835098266601562
0.0011680126190185547
0.0011789798736572266
0.0011706352233886719
0.001165628433227539
0.001195669174194336
0.00115966796875
0.0011796951293945312
0.0015254020690917969
0.0015132427215576172
0.001516580581665039
0.001512765884399414
0.0015139579772949219
0.0034537315368652344
0.0017809867858886719
0.0019261837005615234
0.001771688461303711
0.001668691635131836
0.0012009143829345703
0.0012102127075195312
0.0011777877807617188
0.001222848892211914
0.0011851787567138672
0.001172780990600586
0.0011682510375976562
0.001168966293334961
0.001184701919555664
0.0011723041534423828
0.0011970996856689453
0.0011675357818603516
0.0013628005981445312
0.0012140274047851562
0.0012140274047851562
0.0015118122100830078
0.0016028881072998047
0.001390695571899414
0.0012195110321044922
0.0012063980102539062
0.0011801719665527344
0.0011866092681884766
0.0013513565063476562
0.0014047622680664062
0.0012040138244628906
0.0012090206146240234
0.0012176036834716797
0.0012006759643554688
0.0011839866638183594
0.0012133121490478516
0.0011761188507080078
0.001176595687866211
0.0011687278747558594
0.0012555122375488281
0.0011777877807617188
0.0016734600067138672
0.0016143321990966797
0.0016093254089355469
0.0016045570373535156
0.001608133316040039
0.0016698837280273438
0.0015227794647216797
0.0015177726745605469
0.001520395278930664
0.0015411376953125
0.0016024112701416016
0.0014486312866210938
0.00185394287109375
0.0016314983367919922
0.0015289783477783203
0.0014634132385253906
0.0016582012176513672
0.0016286373138427734
0.0016169548034667969
0.00160980224609375
0.0016095638275146484
0.0017588138580322266
0.0017194747924804688
0.0017178058624267578
0.0017189979553222656
0.0017366409301757812
0.001882791519165039
0.0018579959869384766
0.001880645751953125
0.0018651485443115234
0.001859903335571289
0.0022385120391845703
0.0022788047790527344
0.0021829605102539062
0.002170562744140625
0.002148151397705078
0.0014023780822753906
0.001394033432006836
0.0013952255249023438
0.0014293193817138672
0.0013759136199951172
0.0015666484832763672
0.0013680458068847656
0.0012135505676269531
0.0011987686157226562
0.0011818408966064453
0.0011777877807617188
0.0011668205261230469
0.0011649131774902344
0.001165628433227539
0.001163482666015625
0.0011670589447021484
0.0011627674102783203
0.0011625289916992188
0.0011630058288574219
0.001161813735961914
0.0011820793151855469
0.0011599063873291016
0.0011861324310302734
0.0011665821075439453
0.001163482666015625
0.0011758804321289062
0.001168966293334961
0.0011737346649169922
0.0011720657348632812
0.0011637210845947266
0.0011792182922363281
0.0011723041534423828
0.0011599063873291016
0.001157999038696289
0.0011591911315917969
0.0011780261993408203
0.0018761157989501953
0.0018777847290039062
0.0018587112426757812
0.0018572807312011719
0.0018630027770996094
0.0018990039825439453
0.0018723011016845703
0.0018754005432128906
0.001856088638305664
0.0019021034240722656
0.0018546581268310547
0.001855611801147461
0.001855611801147461
0.0018558502197265625
0.0018870830535888672
0.001857757568359375
0.0018780231475830078
0.0018506050109863281
0.0018911361694335938
0.0018596649169921875
0.0018684864044189453
0.0018589496612548828
0.001859426498413086
0.0018548965454101562
0.0018608570098876953
0.001859903335571289
0.0018537044525146484
0.0018544197082519531
0.0018754005432128906
0.0018608570098876953
0.001857757568359375
0.0018591880798339844
0.0018494129180908203
0.001855611801147461
0.0018541812896728516
0.0018587112426757812
0.0018575191497802734
0.0018570423126220703
0.0018513202667236328
0.0018520355224609375
0.001880645751953125
0.0018720626831054688
0.001855611801147461
0.001859903335571289
0.0018661022186279297
0.0018885135650634766
0.0018684864044189453
0.001859426498413086
0.001859426498413086
0.0018711090087890625
0.0018570423126220703
0.0018825531005859375
0.0018591880798339844
0.0018644332885742188
0.0018641948699951172
0.0018582344055175781
0.0018622875213623047
0.0018773078918457031
0.0018568038940429688
0.0018568038940429688
0.0018570423126220703
0.001856088638305664
0.0018649101257324219
0.0018627643585205078
0.001856088638305664
0.0018575191497802734
0.0019123554229736328
0.0018575191497802734
0.0018575191497802734
0.0018677711486816406
0.0018925666809082031
0.0020236968994140625
0.001928091049194336
0.001871347427368164
0.0019106864929199219
0.0018732547760009766
0.0018768310546875
0.001867055892944336
0.0018644332885742188
0.0018672943115234375
0.0018634796142578125
0.001863241195678711
0.0018689632415771484
0.001861572265625
0.0018668174743652344
0.0018715858459472656
0.0018787384033203125
0.0018906593322753906
0.0018627643585205078
0.001861572265625
0.0018601417541503906
0.0018932819366455078
0.0018646717071533203
0.001878976821899414
0.0018804073333740234
0.0018696784973144531
0.0018661022186279297
0.0018982887268066406
0.001863718032836914
0.0018579959869384766
0.0018606185913085938
0.0018532276153564453
0.0018877983093261719
0.0018572807312011719
0.0018544197082519531
0.0018639564514160156
0.0018665790557861328
0.0018651485443115234
0.0019009113311767578
0.0018947124481201172
0.0018856525421142578
0.0018620491027832031
0.0018625259399414062
0.0018630027770996094
0.001856088638305664
0.0018587112426757812
0.001861572265625
0.001861572265625
0.0018620491027832031
0.0019404888153076172
0.0018987655639648438
0.0018923282623291016
0.0019490718841552734
0.001981496810913086
0.0019061565399169922
0.0018773078918457031
0.0019021034240722656
0.001873016357421875
0.0019028186798095703
0.001865386962890625
0.0018680095672607422
0.001956462860107422
0.0018775463104248047
0.0019183158874511719
0.0018651485443115234
0.001940011978149414
0.0019114017486572266
0.0019805431365966797
0.0019347667694091797
0.0018918514251708984
0.001882314682006836
0.0018732547760009766
0.0020890235900878906
0.0019364356994628906
0.0019719600677490234
0.0019164085388183594
0.0018808841705322266
0.001873016357421875
0.001878976821899414
0.0018758773803710938
0.0018672943115234375
0.0018711090087890625
0.0018639564514160156
0.0018625259399414062
0.0018811225891113281
0.0018885135650634766
0.0018885135650634766
0.0018868446350097656
0.0018703937530517578
0.0019168853759765625
0.0019073486328125
0.0018880367279052734
0.0018672943115234375
0.001863718032836914
0.0018939971923828125
0.0018665790557861328
0.0018820762634277344
0.0018916130065917969
0.0018661022186279297
0.001863241195678711
0.0018627643585205078
0.0019037723541259766
0.0018770694732666016
0.0018627643585205078
0.0018658638000488281
0.0018677711486816406
0.0018703937530517578
0.001867532730102539
0.0018672943115234375
0.0018892288208007812
0.0018925666809082031
0.0018873214721679688
0.0018994808197021484
0.0018749237060546875
0.001867532730102539
0.0018723011016845703
0.0018682479858398438
0.0018684864044189453
0.0018651485443115234
0.001867532730102539
0.001924276351928711
0.0018682479858398438
0.0018672943115234375
0.0018782615661621094
0.0018744468688964844
0.001901865005493164
0.0018908977508544922
0.0018813610076904297
0.001873016357421875
0.0018677711486816406
0.0018808841705322266
0.0018804073333740234
0.0018780231475830078
0.001861572265625
0.0018644332885742188
0.0018630027770996094
0.0018701553344726562
0.0018703937530517578
0.0018651485443115234
0.0018780231475830078
0.001861572265625
0.0018754005432128906
0.001867532730102539
0.001905679702758789
0.0018646717071533203
0.0018608570098876953
0.0018858909606933594
0.0018656253814697266
0.0018618106842041016
0.0018630027770996094
0.0018603801727294922
0.0018973350524902344
0.0018699169158935547
0.0018744468688964844
0.0018718242645263672
0.001863718032836914
0.0018966197967529297
0.001880645751953125
0.0018839836120605469
0.0018689632415771484
0.0018661022186279297
0.0018634796142578125
0.0018703937530517578
0.0018687248229980469
0.0018720626831054688
0.0018711090087890625
0.0018897056579589844
0.0018723011016845703
0.0018684864044189453
0.001859426498413086
0.001867055892944336
0.0022132396697998047
0.002293825149536133
0.0019483566284179688
0.0018048286437988281
0.0017557144165039062
0.001744985580444336
0.001840353012084961
0.0018913745880126953
0.0018742084503173828
0.0018665790557861328
0.001867532730102539
0.0018644332885742188
0.0018742084503173828
0.0018663406372070312
0.0018627643585205078
0.0018858909606933594
0.0018839836120605469
0.0018897056579589844
0.0018839836120605469
0.0018701553344726562
0.0019218921661376953
0.0018703937530517578
0.0018677711486816406
0.0018682479858398438
0.0018839836120605469
0.0018680095672607422
0.0018608570098876953
0.0018706321716308594
0.0019023418426513672
0.0018649101257324219
0.0018620491027832031
0.0019023418426513672
0.0018851757049560547
0.001865386962890625
0.0018677711486816406
0.0018682479858398438
0.0018601417541503906
0.0018928050994873047
0.001863241195678711
0.001867055892944336
0.0018618106842041016
0.0018732547760009766
0.0018591880798339844
0.0018754005432128906
0.0018656253814697266
0.0018715858459472656
0.0018644332885742188
0.0018641948699951172
0.0018682479858398438
0.0018744468688964844
0.0018630027770996094
0.0019006729125976562
0.002020597457885742
0.001911163330078125
0.0018787384033203125
0.0018701553344726562
0.0018718242645263672
0.00188446044921875
0.0018832683563232422
0.0018754005432128906
0.0018804073333740234
0.0018763542175292969
0.0018873214721679688
0.001873016357421875
0.0018799304962158203
0.0018656253814697266
0.0018682479858398438
0.001865386962890625
0.0018682479858398438
0.0018818378448486328
0.0018694400787353516
0.0018739700317382812
0.0018849372863769531
0.0019154548645019531
0.0018839836120605469
0.001901865005493164
0.0018956661224365234
0.0018737316131591797
0.0018668174743652344
0.0018663406372070312
0.0018665790557861328
0.0018656253814697266
0.0018537044525146484
0.0018706321716308594
0.0018739700317382812
0.001878499984741211
0.0018649101257324219
0.0018773078918457031
0.0018672943115234375
0.0018711090087890625
0.0018661022186279297
0.0021135807037353516
0.0019009113311767578
0.0018925666809082031
0.0019032955169677734
0.0018911361694335938
0.0018854141235351562
0.0018804073333740234
0.0018873214721679688
0.0019125938415527344
0.0018801689147949219
0.0018718242645263672
0.0018773078918457031
0.001886129379272461
0.0019099712371826172
0.0018742084503173828
0.0018804073333740234
0.0018739700317382812
0.0018854141235351562
0.0018765926361083984
0.001882791519165039
0.0018718242645263672
0.0018734931945800781
0.0018703937530517578
0.0018718242645263672
0.0018818378448486328
0.0018763542175292969
0.0018835067749023438
0.001871347427368164
0.0018734931945800781
0.0018756389617919922
0.001901388168334961
0.0018982887268066406
0.0018727779388427734
0.0018932819366455078
0.0018949508666992188
0.0018739700317382812
0.001870870590209961
0.001897573471069336
0.0018773078918457031
0.001957416534423828
0.0018901824951171875
0.0019080638885498047
0.0019142627716064453
0.0018811225891113281
0.0018723011016845703
0.0018868446350097656
0.0018711090087890625
0.0018739700317382812
0.0018680095672607422
0.0018737316131591797
0.0018723011016845703
0.0018734931945800781
0.0018804073333740234
0.001893758773803711
0.0018682479858398438
0.001875162124633789
0.0018694400787353516
0.0018689632415771484
0.0018811225891113281
0.001874685287475586
0.0020482540130615234
0.0019173622131347656
0.001905202865600586
0.0018987655639648438
0.001878499984741211
0.0019350051879882812
0.0018742084503173828
0.0018734931945800781
0.001886606216430664
0.0018696784973144531
0.0018758773803710938
0.0018744468688964844
0.0018680095672607422
0.0018901824951171875
0.0018703937530517578
0.0018925666809082031
0.001903533935546875
0.001875162124633789
0.0018732547760009766
0.0018737316131591797
0.0018696784973144531
0.0018763542175292969
0.0018737316131591797
0.0019266605377197266
0.0018732547760009766
0.0018916130065917969
0.001920938491821289
0.0018811225891113281
0.0018749237060546875
0.001897573471069336
0.0019168853759765625
0.0018837451934814453
0.0018725395202636719
0.0018701553344726562
0.0018832683563232422
0.0018701553344726562
0.0019066333770751953
0.0018858909606933594
0.001878499984741211
0.001888275146484375
0.0018744468688964844
0.0018718242645263672
0.0018732547760009766
0.0018689632415771484
0.0019001960754394531
0.0018846988677978516
0.0018737316131591797
0.0018723011016845703
0.0018665790557861328
0.0018813610076904297
0.0018749237060546875
0.0018715858459472656
0.0018870830535888672
0.0018868446350097656
0.0018744468688964844
0.0018715858459472656
0.0018720626831054688
0.0018811225891113281
0.0018744468688964844
0.0018794536590576172
0.0018754005432128906
0.0019102096557617188
0.0021071434020996094
0.0019195079803466797
0.0019259452819824219
0.0018951892852783203
0.0018799304962158203
0.001889944076538086
0.0011870861053466797
0.0011780261993408203
0.0011692047119140625
0.0011761188507080078
0.0011682510375976562
0.0012097358703613281
0.001180410385131836
0.0012013912200927734
0.0011734962463378906
0.0011858940124511719
0.001169443130493164
0.0011746883392333984
0.0011668205261230469
0.0011928081512451172
0.0011887550354003906
0.0011794567108154297
0.0012106895446777344
0.001203298568725586
0.0011720657348632812
0.001176595687866211
0.0011668205261230469
0.0011799335479736328
0.0011684894561767578
0.0011768341064453125
0.0011658668518066406
0.0011723041534423828
0.00116729736328125
0.0011761188507080078
0.0012655258178710938
0.0011882781982421875
0.001177072525024414
0.0012578964233398438
0.0012667179107666016
0.0012142658233642578
0.0011904239654541016
0.0015025138854980469
0.001459360122680664
0.0014829635620117188
0.0014493465423583984
0.0014832019805908203
0.0014989376068115234
0.0015358924865722656
0.0015759468078613281
0.0015401840209960938
0.0015332698822021484
0.0015597343444824219
0.0014035701751708984
0.0014035701751708984
0.0013833045959472656
0.001397848129272461
0.0013990402221679688
0.0015888214111328125
0.0015387535095214844
0.0015513896942138672
0.0015337467193603516
0.001547098159790039
0.0014157295227050781
0.0014007091522216797
0.0013980865478515625
0.0013949871063232422
0.0013880729675292969
0.0015535354614257812
0.0015594959259033203
0.0015540122985839844
0.0015392303466796875
0.0015704631805419922
0.0014684200286865234
0.0014863014221191406
0.0014636516571044922
0.0014557838439941406
0.0014684200286865234
0.0014679431915283203
0.0014584064483642578
0.0014867782592773438
0.001447439193725586
0.0014557838439941406
0.0014619827270507812
0.0015366077423095703
0.0015184879302978516
0.0015282630920410156
0.0015196800231933594
0.0015881061553955078
0.00139617919921875
0.0013875961303710938
0.0013947486877441406
0.0014028549194335938
0.0014069080352783203
0.0015420913696289062
0.0015244483947753906
0.0015399456024169922
0.0015387535095214844
0.0015323162078857422
0.0014157295227050781
0.0014064311981201172
0.0013852119445800781
0.0013887882232666016
0.0013821125030517578
0.0015892982482910156
0.001523733139038086
0.0015339851379394531
0.0015215873718261719
0.0015316009521484375
0.001527547836303711
0.001462697982788086
0.0014450550079345703
0.0014553070068359375
0.001447916030883789
0.0015063285827636719
0.0014147758483886719
0.0014190673828125
0.001432180404663086
0.0014133453369140625
0.0014677047729492188
0.0015707015991210938
0.001585245132446289
0.0015842914581298828
0.0016121864318847656
0.0015659332275390625
0.0012013912200927734
0.0012464523315429688
0.0011932849884033203
0.0012471675872802734
0.0011942386627197266
0.0011925697326660156
0.0011792182922363281
0.0011768341064453125
0.0011730194091796875
0.0011968612670898438
0.001178741455078125
0.0011720657348632812
0.0011713504791259766
0.001186370849609375
0.0012023448944091797
0.0011723041534423828
0.00118255615234375
0.0011713504791259766
0.0011990070343017578
0.0011928081512451172
0.001260995864868164
0.0012030601501464844
0.0011906623840332031
0.001180410385131836
0.0011746883392333984
0.0011818408966064453
0.0011768341064453125
0.0011718273162841797
0.0011701583862304688
0.001172780990600586
0.0011692047119140625
0.0011699199676513672
0.0013957023620605469
0.0013775825500488281
0.0012116432189941406
0.0019724369049072266
0.0019297599792480469
0.0019080638885498047
0.0019009113311767578
0.0019190311431884766
0.0018949508666992188
0.0018889904022216797
0.0018815994262695312
0.0018839836120605469
0.0018787384033203125
0.0018925666809082031
0.0018856525421142578
0.0019009113311767578
0.001890420913696289
0.0018894672393798828
0.0019235610961914062
0.0019032955169677734
0.0018908977508544922
0.001886129379272461
0.0018794536590576172
0.0018858909606933594
0.0018846988677978516
0.0018808841705322266
0.001912832260131836
0.0018796920776367188
0.0018775463104248047
0.0018908977508544922
0.0018992424011230469
0.0018885135650634766
0.0020287036895751953
0.0019383430480957031
0.0019576549530029297
0.0018913745880126953
0.0018851757049560547
0.0019407272338867188
0.0018949508666992188
0.0018944740295410156
0.0018944740295410156
0.0018863677978515625
0.0018873214721679688
0.0018877983093261719
0.0018825531005859375
0.001901388168334961
0.0018868446350097656
0.0018928050994873047
0.001888275146484375
0.0019245147705078125
0.0019023418426513672
0.0018868446350097656
0.0018849372863769531
0.0018851757049560547
0.0018842220306396484
0.0018880367279052734
0.0018885135650634766
0.0018892288208007812
0.0018837451934814453
0.0018846988677978516
0.001934051513671875
0.0018968582153320312
0.0018858909606933594
0.0018818378448486328
0.0019054412841796875
0.0018863677978515625
0.0019249916076660156
0.0019168853759765625
0.0018832683563232422
0.0018839836120605469
0.0018794536590576172
0.001928567886352539
0.0019125938415527344
0.0018885135650634766
0.002000570297241211
0.0018906593322753906
0.0018913745880126953
0.0018820762634277344
0.0018851757049560547
0.0018839836120605469
0.0019185543060302734
0.0018906593322753906
0.0018854141235351562
0.0018949508666992188
0.0019068717956542969
0.0019123554229736328
0.0019216537475585938
0.0019173622131347656
0.0018908977508544922
0.0018839836120605469
0.0018856525421142578
0.0018849372863769531
0.0018906593322753906
0.0018854141235351562
0.001911163330078125
0.0018944740295410156
0.002125978469848633
0.00201416015625
0.0017790794372558594
0.0017480850219726562
0.001783132553100586
0.0017459392547607422
0.0017535686492919922
0.0017399787902832031
0.0017244815826416016
0.0017337799072265625
0.001728057861328125
0.0019550323486328125
0.0019140243530273438
0.0019261837005615234
0.0019054412841796875
0.0019087791442871094
0.0019114017486572266
0.0018985271453857422
0.0019061565399169922
0.0018999576568603516
0.001967191696166992
0.001990795135498047
0.0017931461334228516
0.001758575439453125
0.0017240047454833984
0.0017230510711669922
0.0019450187683105469
0.0021054744720458984
0.002078533172607422
0.0020699501037597656
0.0020575523376464844
0.0021140575408935547
0.0018987655639648438
0.0018744468688964844
0.0018656253814697266
0.0018758773803710938
0.0018696784973144531
0.0018639564514160156
0.0018711090087890625
0.0018489360809326172
0.0018968582153320312
0.0018956661224365234
0.0019190311431884766
0.0018966197967529297
0.0018901824951171875
0.0018985271453857422
0.0019183158874511719
0.001886606216430664
0.0018978118896484375
0.001889944076538086
0.0018925666809082031
0.0018961429595947266
0.001890420913696289
0.0018999576568603516
0.0018932819366455078
0.001886606216430664
0.0018961429595947266
0.001889944076538086
0.0019154548645019531
0.0018885135650634766
0.0018894672393798828
0.0019342899322509766
0.0019011497497558594
0.0019001960754394531
0.0018925666809082031
0.0018908977508544922
0.001895904541015625
0.00189971923828125
0.0019195079803466797
0.0019116401672363281
0.0021152496337890625
0.001973867416381836
0.001934051513671875
0.001957416534423828
0.0019075870513916016
0.0019164085388183594
0.0018994808197021484
0.0019023418426513672
0.0019376277923583984
0.0019271373748779297
0.0018990039825439453
0.0019185543060302734
0.0018954277038574219
0.0018928050994873047
0.0019006729125976562
0.001897573471069336
0.0018877983093261719
0.0018885135650634766
0.0019016265869140625
0.0018966197967529297
0.0018935203552246094
0.0019421577453613281
0.001918792724609375
0.001889944076538086
0.0018970966339111328
0.001886129379272461
0.001888275146484375
0.001968860626220703
0.0018966197967529297
0.001890420913696289
0.0018892288208007812
0.001889944076538086
0.001905202865600586
0.0018930435180664062
0.0019469261169433594
0.0018923282623291016
0.0018911361694335938
0.0018906593322753906
0.0018863677978515625
0.0018858909606933594
0.0018897056579589844
0.0018851757049560547
0.0018870830535888672
0.0018978118896484375
0.001890420913696289
0.0019257068634033203
0.0018956661224365234
0.001889944076538086
0.00188446044921875
0.0018889904022216797
0.001895904541015625
0.0019290447235107422
0.0018963813781738281
0.0018908977508544922
0.0018913745880126953
0.0019288063049316406
0.0018963813781738281
0.001897573471069336
0.0018963813781738281
0.0018978118896484375
0.0018992424011230469
0.0018985271453857422
0.0018908977508544922
0.0018932819366455078
0.0018966197967529297
0.0018966197967529297
0.0019083023071289062
0.001889944076538086
0.0019114017486572266
0.00189208984375
0.0019207000732421875
0.00189208984375
0.0018923282623291016
0.0018913745880126953
0.0018911361694335938
0.0018987655639648438
0.001890420913696289
0.0018925666809082031
0.0019252300262451172
0.0018923282623291016
0.001917123794555664
0.0019299983978271484
0.0019078254699707031
0.0019025802612304688
0.0018906593322753906
0.0020186901092529297
0.002031564712524414
0.001954317092895508
0.0019183158874511719
0.0019326210021972656
0.0019450187683105469
0.0019180774688720703
0.0018949508666992188
0.0019283294677734375
0.0019030570983886719
0.0018956661224365234
0.0018932819366455078
0.0018916130065917969
0.0018887519836425781
0.001890420913696289
0.001956462860107422
0.0019350051879882812
0.0019218921661376953
0.001940011978149414
0.002193450927734375
0.00193023681640625
0.0019359588623046875
0.0019309520721435547
0.0019137859344482422
0.0020999908447265625
0.002191305160522461
0.001957416534423828
0.0019409656524658203
0.001913309097290039
0.0019550323486328125
0.0019040107727050781
0.002084493637084961
0.0019559860229492188
0.001979351043701172
0.0019481182098388672
0.0019218921661376953
0.0019152164459228516
0.0019049644470214844
0.0019435882568359375
0.001922607421875
0.001950979232788086
0.0019185543060302734
0.0019106864929199219
0.001898050308227539
0.001895904541015625
0.0018932819366455078
0.0019321441650390625
0.0018951892852783203
0.0018951892852783203
0.001895904541015625
0.0018968582153320312
0.0018906593322753906
0.0019180774688720703
0.0018949508666992188
0.0018846988677978516
0.0018918514251708984
0.001935720443725586
0.001905679702758789
0.001901388168334961
0.001894235610961914
0.001931905746459961
0.001935720443725586
0.0019185543060302734
0.0021381378173828125
0.001940011978149414
0.0019512176513671875
0.0019142627716064453
0.0019025802612304688
0.0019016265869140625
0.0019006729125976562
0.001971721649169922
0.0019121170043945312
0.0019195079803466797
0.0019178390502929688
0.0019085407257080078
0.001961231231689453
0.0019147396087646484
0.0019769668579101562
0.0019068717956542969
0.0019042491912841797
0.0019214153289794922
0.0019032955169677734
0.0019011497497558594
0.0019609928131103516
0.0019114017486572266
0.0019042491912841797
0.001986980438232422
0.0019097328186035156
0.0019233226776123047
0.0019006729125976562
0.0019009113311767578
0.001890420913696289
0.0019025802612304688
0.0018992424011230469
0.0018994808197021484
0.00189208984375
0.0019030570983886719
0.0019023418426513672
0.0019135475158691406
0.001895904541015625
0.0019066333770751953
0.0018992424011230469
0.0019295215606689453
0.0019347667694091797
0.0019044876098632812
0.0018963813781738281
0.0019409656524658203
0.0019342899322509766
0.0019223690032958984
0.001956939697265625
0.0019068717956542969
0.0019047260284423828
0.001898050308227539
0.0018949508666992188
0.0018992424011230469
0.0018961429595947266
0.0019373893737792969
0.0019047260284423828
0.0019288063049316406
0.0019230842590332031
0.0027008056640625
0.0023064613342285156
0.002137422561645508
0.0019593238830566406
0.002025604248046875
0.0017931461334228516
0.0017733573913574219
0.0018305778503417969
0.0017702579498291016
0.0018496513366699219
0.0019452571868896484
0.0019237995147705078
0.0019481182098388672
0.001968860626220703
0.0019426345825195312
0.001920938491821289
0.0019087791442871094
0.0019066333770751953
0.0019054412841796875
0.0019135475158691406
0.0019130706787109375
0.0019116401672363281
0.0019176006317138672
0.0019106864929199219
0.0019202232360839844
0.0019154548645019531
0.0019791126251220703
0.0019214153289794922
0.0019068717956542969
0.0019028186798095703
0.0019140243530273438
0.0019123554229736328
0.0019419193267822266
0.0019259452819824219
0.0019061565399169922
0.0019414424896240234
0.0019066333770751953
0.001901865005493164
0.00189971923828125
0.0019066333770751953
0.0019321441650390625
0.0019114017486572266
0.0019037723541259766
0.0019042491912841797
0.0018987655639648438
0.0019652843475341797
0.0019073486328125
0.0019121170043945312
0.0019168853759765625
0.0019085407257080078
0.0019028186798095703
0.0019068717956542969
0.0019042491912841797
0.001911163330078125
0.0018966197967529297
0.0019021034240722656
0.001997709274291992
0.0019750595092773438
0.0019328594207763672
0.0019085407257080078
0.0019123554229736328
0.0019118785858154297
0.0019016265869140625
0.0019223690032958984
0.001912832260131836
0.0019114017486572266
0.0019335746765136719
0.0019066333770751953
0.001941680908203125
0.0019156932830810547
0.0019004344940185547
0.0019378662109375
0.0019009113311767578
0.0019040107727050781
0.0018985271453857422
0.0019078254699707031
0.0019364356994628906
0.0019075870513916016
0.0018992424011230469
0.0019142627716064453
0.0019066333770751953
0.001920938491821289
0.0019373893737792969
0.0019571781158447266
0.0019049644470214844
0.0019109249114990234
0.0019397735595703125
0.0019245147705078125
0.0019080638885498047
0.0019109249114990234
0.0019071102142333984
0.0019326210021972656
0.0019245147705078125
0.0019085407257080078
0.0019040107727050781
0.0019087791442871094
0.0019001960754394531
0.0019125938415527344
0.0019040107727050781
0.001940011978149414
0.0019147396087646484
0.0019078254699707031
0.0019528865814208984
0.0019130706787109375
0.0019273757934570312
0.0019068717956542969
0.0019195079803466797
0.0019292831420898438
0.0019106864929199219
0.0019068717956542969
0.0018963813781738281
0.0019097328186035156
0.0019121170043945312
0.0019392967224121094
0.0019268989562988281
0.0019156932830810547
0.0019588470458984375
0.0019190311431884766
0.0014879703521728516
0.0014774799346923828
0.0014727115631103516
0.001470327377319336
0.001466512680053711
0.001558065414428711
0.0015575885772705078
0.0015454292297363281
0.0015780925750732422
0.001575469970703125
0.0016150474548339844
0.0014793872833251953
0.0014662742614746094
0.0014693737030029297
0.0014996528625488281
0.0015406608581542969
0.0015599727630615234
0.0015501976013183594
0.0015463829040527344
0.001547098159790039
0.0015561580657958984
0.0014834403991699219
0.00146484375
0.0014729499816894531
0.0014679431915283203
0.0014674663543701172
0.0015528202056884766
0.0015454292297363281
0.001577138900756836
0.0015461444854736328
0.0015451908111572266
0.0016086101531982422
0.0015125274658203125
0.0014674663543701172
0.001474618911743164
0.0014667510986328125
0.0014920234680175781
0.0014681816101074219
0.0014650821685791016
0.0014879703521728516
0.0014710426330566406
0.0015666484832763672
0.0015759468078613281
0.001771688461303711
0.0016021728515625
0.0015823841094970703
0.0015649795532226562
0.0014994144439697266
0.0014758110046386719
0.001470804214477539
0.0014841556549072266
0.0014748573303222656
0.0015594959259033203
0.0015492439270019531
0.0015559196472167969
0.0015780925750732422
0.0015468597412109375
0.001605987548828125
0.001592874526977539
0.0014829635620117188
0.0014727115631103516
0.0014748573303222656
0.0014920234680175781
0.0014715194702148438
0.0015184879302978516
0.0015079975128173828
0.001489877700805664
0.0015566349029541016
0.0015642642974853516
0.0015513896942138672
0.0015451908111572266
0.0015456676483154297
0.0015456676483154297
0.001486063003540039
0.0014710426330566406
0.001468658447265625
0.0014693737030029297
0.0014903545379638672
0.001583099365234375
0.0015480518341064453
0.001550436019897461
0.0015492439270019531
0.0015740394592285156
0.0016155242919921875
0.0014770030975341797
0.0014727115631103516
0.001470327377319336
0.001470327377319336
0.0016970634460449219
0.0015480518341064453
0.001485586166381836
0.0014820098876953125
0.0014765262603759766
0.0015499591827392578
0.001562356948852539
0.001562356948852539
0.0015463829040527344
0.001544952392578125
0.0015528202056884766
0.0015215873718261719
0.0030210018157958984
0.0016620159149169922
0.001665353775024414
0.001634836196899414
0.0017168521881103516
0.0019488334655761719
0.0018582344055175781
0.001913309097290039
0.0019304752349853516
0.001581430435180664
0.0014743804931640625
0.0014791488647460938
0.0014805793762207031
0.001430511474609375
0.0019102096557617188
0.001802206039428711
0.0017952919006347656
0.001772165298461914
0.001783132553100586
0.0017855167388916016
0.0014925003051757812
0.0014786720275878906
0.0014853477478027344
0.0014781951904296875
0.0015244483947753906
0.001653432846069336
0.0016427040100097656
0.0016391277313232422
0.0016460418701171875
0.001706838607788086
0.0019292831420898438
0.0019135475158691406
0.0019083023071289062
0.0020291805267333984
0.0021195411682128906
0.001976490020751953
0.0019381046295166016
0.0019259452819824219
0.0019276142120361328
0.0019860267639160156
0.0019290447235107422
0.0022079944610595703
0.002196073532104492
0.002359628677368164
0.0020041465759277344
0.001855611801147461
0.001814126968383789
0.0017769336700439453
0.0017828941345214844
0.0017809867858886719
0.0019414424896240234
0.0019545555114746094
0.0019440650939941406
0.0019478797912597656
0.0019516944885253906
0.002028226852416992
0.002177000045776367
0.0019497871398925781
0.0019452571868896484
0.0019388198852539062
0.001935720443725586
0.0019397735595703125
0.0019218921661376953
0.0019135475158691406
0.0019843578338623047
0.0019240379333496094
0.0019481182098388672
0.0019729137420654297
0.0019469261169433594
0.001939535140991211
0.0019183158874511719
0.001954793930053711
0.0022542476654052734
0.0017876625061035156
0.0017685890197753906
0.0019702911376953125
0.0019125938415527344
0.0019266605377197266
0.0019123554229736328
0.0019466876983642578
0.0019333362579345703
0.0019485950469970703
0.001909494400024414
0.0019693374633789062
0.0019192695617675781
0.0019152164459228516
0.0019176006317138672
0.0019123554229736328
0.0019099712371826172
0.0019757747650146484
0.0019452571868896484
0.0019168853759765625
0.001983165740966797
0.0019421577453613281
0.001953601837158203
0.0019435882568359375
0.001957416534423828
0.0019190311431884766
0.0019152164459228516
0.0019142627716064453
0.0019159317016601562
0.0019555091857910156
0.0019342899322509766
0.001916646957397461
0.0019295215606689453
0.0019054412841796875
0.0019254684448242188
0.0019168853759765625
0.0019147396087646484
0.0019290447235107422
0.0019164085388183594
0.0019102096557617188
0.0019271373748779297
0.0019273757934570312
0.0019905567169189453
0.0019347667694091797
0.0019168853759765625
0.0019311904907226562
0.0019161701202392578
0.0019168853759765625
0.0019249916076660156
0.0019719600677490234
0.001957416534423828
0.0019178390502929688
0.0019183158874511719
0.0019283294677734375
0.0019161701202392578
0.0019576549530029297
0.0019125938415527344
0.0019192695617675781
0.001912832260131836
0.0019068717956542969
0.0019066333770751953
0.0019154548645019531
0.001911163330078125
0.001909494400024414
0.001913309097290039
0.0019009113311767578
0.0019407272338867188
0.002022266387939453
0.0019652843475341797
0.001928567886352539
0.0019428730010986328
0.001928091049194336
0.001924753189086914
0.0019295215606689453
0.0019190311431884766
0.0019178390502929688
0.0019221305847167969
0.0019173622131347656
0.00191497802734375
0.0019164085388183594
0.0019102096557617188
0.002214193344116211
0.002218961715698242
0.0019788742065429688
0.0019488334655761719
0.0019478797912597656
0.0019795894622802734
0.0019462108612060547
0.0019488334655761719
0.001960277557373047
0.0019197463989257812
0.0019145011901855469
0.002003908157348633
0.0019283294677734375
0.0019202232360839844
0.0019178390502929688
0.0019228458404541016
0.0019431114196777344
0.0019185543060302734
0.0019497871398925781
0.0019214153289794922
0.0019195079803466797
0.0019185543060302734
0.0019195079803466797
0.0019156932830810547
0.001905202865600586
0.0019123554229736328
0.001943349838256836
0.001916646957397461
0.0019087791442871094
0.0019140243530273438
0.001918792724609375
0.0020072460174560547
0.001918792724609375
0.001905202865600586
0.0019061565399169922
0.0019104480743408203
0.001968860626220703
0.0019309520721435547
0.00193023681640625
0.0019233226776123047
0.0019452571868896484
0.0020623207092285156
0.0019664764404296875
0.0019683837890625
0.0019230842590332031
0.0019147396087646484
0.0019447803497314453
0.001934051513671875
0.0019114017486572266
0.0019118785858154297
0.001909494400024414
0.0019085407257080078
0.0019240379333496094
0.0019371509552001953
0.0019488334655761719
0.0019121170043945312
0.0019142627716064453
0.0019702911376953125
0.0019185543060302734
0.0019147396087646484
0.001912832260131836
0.001972675323486328
0.0019254684448242188
0.002033710479736328
0.001958608627319336
0.0019178390502929688
0.0019259452819824219
0.0019102096557617188
0.0019202232360839844
0.0019192695617675781
0.001905202865600586
0.001909494400024414
0.0019114017486572266
0.001911163330078125
0.001903533935546875
0.0019690990447998047
0.0019252300262451172
0.0019125938415527344
0.0019457340240478516
0.0019104480743408203
0.0019135475158691406
0.0019085407257080078
0.0019123554229736328
0.0019409656524658203
0.0019164085388183594
0.0019097328186035156
0.002003192901611328
0.0019659996032714844
0.0019140243530273438
0.0019233226776123047
0.0019152164459228516
0.0019102096557617188
0.0019271373748779297
0.001928091049194336
0.0019223690032958984
0.0019159317016601562
0.001911163330078125
0.001911163330078125
0.0019104480743408203
0.0019268989562988281
0.001967191696166992
0.0019135475158691406
0.0019063949584960938
0.0019080638885498047
0.0019178390502929688
0.0019183158874511719
0.0019326210021972656
0.0019161701202392578
0.0019161701202392578
0.0021538734436035156
0.001973867416381836
0.0020127296447753906
0.0019311904907226562
0.0019261837005615234
0.001956939697265625
0.001924276351928711
0.0019164085388183594
0.0019173622131347656
0.001918792724609375
0.0019176006317138672
0.0019445419311523438
0.0019502639770507812
0.001928567886352539
0.0019423961639404297
0.0019211769104003906
0.002057313919067383
0.0019421577453613281
0.001924753189086914
0.0019190311431884766
0.0019230842590332031
0.0019235610961914062
0.0019168853759765625
0.0019614696502685547
0.0019359588623046875
0.0019335746765136719
0.0019257068634033203
0.001993894577026367
0.0019328594207763672
0.0019307136535644531
0.0019266605377197266
0.0019299983978271484
0.0019235610961914062
0.0019342899322509766
0.0019257068634033203
0.0019366741180419922
0.001959562301635742
0.0019431114196777344
0.0019197463989257812
0.0019161701202392578
0.0019118785858154297
0.001951456069946289
0.0019183158874511719
0.0019140243530273438
0.001912832260131836
0.0019147396087646484
0.0019445419311523438
0.001922607421875
0.0019431114196777344
0.0019223690032958984
0.0019183158874511719
0.0019521713256835938
0.001981019973754883
0.0019223690032958984
0.0019214153289794922
0.0019218921661376953
0.001964092254638672
0.001924276351928711
0.0019350051879882812
0.0019168853759765625
0.0019261837005615234
0.0019180774688720703
0.0019257068634033203
0.0019161701202392578
0.0019156932830810547
0.0019159317016601562
0.0019192695617675781
0.001918792724609375
0.0019137859344482422
0.0019159317016601562
0.001912832260131836
0.00193023681640625
0.0019178390502929688
0.0019135475158691406
0.0019116401672363281
0.0019099712371826172
0.0019125938415527344
0.0019822120666503906
0.001918792724609375
0.0019259452819824219
0.0019252300262451172
0.0019321441650390625
0.00193023681640625
0.001949310302734375
0.0019218921661376953
0.0019130706787109375
0.0019121170043945312
0.0019686222076416016
0.001931905746459961
0.0019309520721435547
0.001917123794555664
0.0019245147705078125
0.0019588470458984375
0.0019152164459228516
0.0019407272338867188
0.0019216537475585938
0.0019121170043945312
0.0019578933715820312
0.0019230842590332031
0.001909494400024414
0.0019218921661376953
0.001917123794555664
0.0019745826721191406
0.0019237995147705078
0.0019593238830566406
0.0019276142120361328
0.0019278526306152344
0.0019180774688720703
0.0019230842590332031
0.0019202232360839844
0.0019202232360839844
0.0019211769104003906
0.001920938491821289
0.0019402503967285156
0.0019192695617675781
0.001926422119140625
0.0019257068634033203
0.0019447803497314453
0.0019297599792480469
0.0019218921661376953
0.0019245147705078125
0.0019121170043945312
0.001916646957397461
0.0019545555114746094
0.0019550323486328125
0.0019321441650390625
0.0019147396087646484
0.0020165443420410156
0.0019686222076416016
0.001965761184692383
0.0019288063049316406
0.0019195079803466797
0.0019154548645019531
0.0019321441650390625
0.0019278526306152344
0.001916646957397461
0.0019164085388183594
0.0019223690032958984
0.0019383430480957031
0.00193023681640625
0.0019397735595703125
0.0019211769104003906
0.0020189285278320312
0.0020608901977539062
0.0019478797912597656
0.001972198486328125
0.0019407272338867188
0.0019614696502685547
0.001934051513671875
0.0019347667694091797
0.001960277557373047
0.0019304752349853516
0.002053976058959961
0.0019445419311523438
0.0019788742065429688
0.0019297599792480469
0.0019383430480957031
0.0019223690032958984
0.0019216537475585938
0.0019271373748779297
0.0019249916076660156
0.0019724369049072266
0.0019757747650146484
0.0019729137420654297
0.001967906951904297
0.0019345283508300781
0.002272367477416992
0.001943349838256836
0.0019540786743164062
0.001934051513671875
0.0019407272338867188
0.0019195079803466797
0.0019235610961914062
0.0019681453704833984
0.0019328594207763672
0.001966238021850586
0.001953601837158203
0.0020308494567871094
0.00194549560546875
0.0019686222076416016
0.0019693374633789062
0.0019538402557373047
0.002059459686279297
0.0019550323486328125
0.0019767284393310547
0.0019366741180419922
0.0019402503967285156
0.0019261837005615234
0.0019257068634033203
0.0019304752349853516
0.00193023681640625
0.0019288063049316406
0.0019342899322509766
0.001961946487426758
0.001928091049194336
0.001977682113647461
0.0019567012786865234
0.0019385814666748047
0.0019259452819824219
0.0019156932830810547
0.0019183158874511719
0.0019268989562988281
0.0020203590393066406
0.0019729137420654297
0.0019483566284179688
0.0019464492797851562
0.0019345283508300781
0.0019807815551757812
0.001959085464477539
0.0019598007202148438
0.0019402503967285156
0.001940011978149414
0.0019233226776123047
0.0019218921661376953
0.001924276351928711
0.001931905746459961
0.0019273757934570312
0.0019307136535644531
0.0019512176513671875
0.0019376277923583984
0.001939535140991211
0.001964569091796875
0.0019354820251464844
0.001928567886352539
0.0019183158874511719
0.001962900161743164
0.0019221305847167969
0.001996278762817383
0.001936197280883789
0.0019383430480957031
0.0019392967224121094
0.0019309520721435547
0.0019555091857910156
0.0019450187683105469
0.0019426345825195312
0.0019223690032958984
0.0019266605377197266
0.0019390583038330078
0.0019233226776123047
0.0019283294677734375
0.0019421577453613281
0.001943826675415039
0.0019354820251464844
0.0019474029541015625
0.001926422119140625
0.0019578933715820312
0.0019321441650390625
0.0020182132720947266
0.0019392967224121094
0.001939535140991211
0.0019292831420898438
0.0019347667694091797
0.0019922256469726562
0.001961946487426758
0.0019397735595703125
0.00194549560546875
0.0019385814666748047
0.001928091049194336
0.0019452571868896484
0.001928567886352539
0.0019426345825195312
0.0019314289093017578
0.0022208690643310547
0.002209901809692383
0.001972675323486328
0.0019845962524414062
0.0019960403442382812
0.001965761184692383
0.0019428730010986328
0.0019648075103759766
0.0019435882568359375
0.0019354820251464844
0.0019390583038330078
0.0019369125366210938
0.0019414424896240234
0.0019366741180419922
0.0019519329071044922
0.0020172595977783203
0.001966714859008789
0.0018262863159179688
0.0014972686767578125
0.0014851093292236328
0.0014865398406982422
0.001499176025390625
0.001520395278930664
0.0014948844909667969
0.0014853477478027344
0.0014863014221191406
0.0014843940734863281
0.0015895366668701172
0.001585245132446289
0.0015642642974853516
0.0015637874603271484
0.001561880111694336
0.0015630722045898438
0.001491546630859375
0.0014939308166503906
0.0014989376068115234
0.0014917850494384766
0.0014836788177490234
0.0015871524810791016
0.0015864372253417969
0.0016162395477294922
0.0015718936920166016
0.0015680789947509766
0.001631021499633789
0.0014903545379638672
0.0014879703521728516
0.0014965534210205078
0.0014832019805908203
0.0015077590942382812
0.0015006065368652344
0.0015141963958740234
0.0014808177947998047
0.0014858245849609375
0.0015611648559570312
0.0015804767608642578
0.0015726089477539062
0.0015645027160644531
0.0015692710876464844
0.001567840576171875
0.0015053749084472656
0.0014901161193847656
0.0014889240264892578
0.0015096664428710938
0.0014836788177490234
0.0016067028045654297
0.0016269683837890625
0.0015761852264404297
0.0015714168548583984
0.0015707015991210938
0.0016329288482666016
0.0014977455139160156
0.0015034675598144531
0.0015087127685546875
0.0015094280242919922
0.0015137195587158203
0.0014913082122802734
0.0014834403991699219
0.001501321792602539
0.001493215560913086
0.0015501976013183594
0.0015819072723388672
0.0015740394592285156
0.001573801040649414
0.0015614032745361328
0.0015671253204345703
0.0015304088592529297
0.0014872550964355469
0.0014863014221191406
0.001491546630859375
0.0014865398406982422
0.0016400814056396484
0.0015797615051269531
0.0015747547149658203
0.0015659332275390625
0.0015659332275390625
0.0015451908111572266
0.001522064208984375
0.0014863014221191406
0.001501321792602539
0.0014889240264892578
0.0014960765838623047
0.0014836788177490234
0.0015349388122558594
0.0014889240264892578
0.0014879703521728516
0.0015914440155029297
0.0016849040985107422
0.0016701221466064453
0.0016918182373046875
0.0016617774963378906
0.0017299652099609375
0.0014934539794921875
0.0014939308166503906
0.0014829635620117188
0.0014867782592773438
0.0015218257904052734
0.001588582992553711
0.0015704631805419922
0.0018732547760009766
0.001859426498413086
0.0016093254089355469
0.0015518665313720703
0.0015206336975097656
0.0015087127685546875
0.001501321792602539
0.0015189647674560547
0.0015993118286132812
0.00157928466796875
0.0015745162963867188
0.001581430435180664
0.0015707015991210938
0.0016453266143798828
0.0015096664428710938
0.0014889240264892578
0.001485586166381836
0.001506805419921875
0.0015079975128173828
0.0015840530395507812
0.0015759468078613281
0.0015704631805419922
0.0016531944274902344
0.001653432846069336
0.0017113685607910156
0.0016627311706542969
0.0016586780548095703
0.0016641616821289062
0.0017399787902832031
0.0019459724426269531
0.0019385814666748047
0.001936197280883789
0.0019409656524658203
0.001976490020751953
0.0019462108612060547
0.0019567012786865234
0.0019519329071044922
0.001960277557373047
0.0019462108612060547
0.0019483566284179688
0.001934051513671875
0.0019435882568359375
0.0019359588623046875
0.0019283294677734375
0.0019347667694091797
0.0019445419311523438
0.0019409656524658203
0.0020515918731689453
0.0019526481628417969
0.0020208358764648438
0.0019414424896240234
0.0019412040710449219
0.002078533172607422
0.001979827880859375
0.0019457340240478516
0.0019512176513671875
0.001950979232788086
0.0019342899322509766
0.0019474029541015625
0.0019392967224121094
0.0019445419311523438
0.0019259452819824219
0.0019338130950927734
0.0019292831420898438
0.0019283294677734375
0.0019719600677490234
0.0019371509552001953
0.001972675323486328
0.0019540786743164062
0.0019445419311523438
0.0019881725311279297
0.0019354820251464844
0.0019996166229248047
0.001949310302734375
0.0019428730010986328
0.001935720443725586
0.0019352436065673828
0.0019335746765136719
0.0019330978393554688
0.0019328594207763672
0.0019376277923583984
0.001969575881958008
0.0019345283508300781
0.0019369125366210938
0.001953125
0.001947164535522461
0.0019469261169433594
0.001943349838256836
0.001954317092895508
0.001939535140991211
0.0019390583038330078
0.0019638538360595703
0.0019469261169433594
0.0019512176513671875
0.0019295215606689453
0.001934051513671875
0.0019414424896240234
0.0020024776458740234
0.0019474029541015625
0.0019464492797851562
0.0019426345825195312
0.001981019973754883
0.0019583702087402344
0.001943349838256836
0.0019669532775878906
0.0019352436065673828
0.0019392967224121094
0.0019354820251464844
0.0019350051879882812
0.0019407272338867188
0.001943349838256836
0.0019328594207763672
0.0019392967224121094
0.0019457340240478516
0.001947641372680664
0.001949310302734375
0.001947164535522461
0.001979351043701172
0.0019936561584472656
0.0019731521606445312
0.0019314289093017578
0.0019283294677734375
0.0020189285278320312
0.001943349838256836
0.0019571781158447266
0.0019526481628417969
0.0019373893737792969
0.0020186901092529297
0.0019407272338867188
0.0019335746765136719
0.0019485950469970703
0.001943826675415039
0.002024412155151367
0.0020599365234375
0.0019598007202148438
0.001960277557373047
0.0019559860229492188
0.0019652843475341797
0.0019600391387939453
0.0019707679748535156
0.0019524097442626953
0.0019483566284179688
0.0019686222076416016
0.002011537551879883
0.001974344253540039
0.0019757747650146484
0.0019421577453613281
0.002010822296142578
0.002051115036010742
0.0019593238830566406
0.0019712448120117188
0.0019795894622802734
0.0019578933715820312
0.0020165443420410156
0.001971006393432617
0.0019690990447998047
0.0019829273223876953
0.001988649368286133
0.001978158950805664
0.001958131790161133
0.0019822120666503906
0.0019478797912597656
0.001967191696166992
0.0019426345825195312
0.001943349838256836
0.001977682113647461
0.0019719600677490234
0.0019464492797851562
0.0019555091857910156
0.0019450187683105469
0.0019435882568359375
0.0020024776458740234
0.002025604248046875
0.001983165740966797
0.001990079879760742
0.0019409656524658203
0.0019376277923583984
0.0019481182098388672
0.0019369125366210938
0.0019826889038085938
0.0019419193267822266
0.0019483566284179688
0.0019359588623046875
0.0019741058349609375
0.001954317092895508
0.0019495487213134766
0.0019359588623046875
0.0019600391387939453
0.001970052719116211
0.0019383430480957031
0.0019447803497314453
0.0019443035125732422
0.001985311508178711
0.0019860267639160156
0.0019998550415039062
0.0019609928131103516
0.0019774436950683594
0.002301454544067383
0.002187490463256836
0.001979351043701172
0.0020177364349365234
0.001965045928955078
0.0019559860229492188
0.0019488334655761719
0.0019505023956298828
0.0020020008087158203
0.0019812583923339844
0.0019540786743164062
0.0019428730010986328
0.0019443035125732422
0.0020008087158203125
0.0019545555114746094
0.0019397735595703125
0.0019383430480957031
0.001936197280883789
0.0019371509552001953
0.0019440650939941406
0.001954793930053711
0.001980304718017578
0.0019791126251220703
0.0019483566284179688
0.0019450187683105469
0.002011537551879883
0.001959562301635742
0.0019466876983642578
0.0019519329071044922
0.001954317092895508
0.0019474029541015625
0.001979827880859375
0.002000570297241211
0.0019729137420654297
0.0019550323486328125
0.0019555091857910156
0.0019469261169433594
0.0019474029541015625
0.0019347667694091797
0.001947164535522461
0.0019478797912597656
0.0019469261169433594
0.001934051513671875
0.0019571781158447266
0.002037525177001953
0.0019860267639160156
0.0019614696502685547
0.0019941329956054688
0.00194549560546875
0.0019805431365966797
0.0020210742950439453
0.0019788742065429688
0.001982450485229492
0.001957416534423828
0.0019538402557373047
0.0019576549530029297
0.001975536346435547
0.0019419193267822266
0.0030167102813720703
0.0022478103637695312
0.0021300315856933594
0.0019865036010742188
0.001973867416381836
0.0019664764404296875
0.0019550323486328125
0.001973867416381836
0.001961231231689453
0.0019474029541015625
0.0019559860229492188
0.0019483566284179688
0.0019469261169433594
0.0019483566284179688
0.0019483566284179688
0.0019450187683105469
0.0019402503967285156
0.0020487308502197266
0.0019600391387939453
0.001954793930053711
0.0019562244415283203
0.002078533172607422
0.0020074844360351562
0.0019698143005371094
0.0019516944885253906
0.001953125
0.0019376277923583984
0.0019464492797851562
0.0019559860229492188
0.001949310302734375
0.0019421577453613281
0.0019507408142089844
0.001947641372680664
0.001973390579223633
0.0019562244415283203
0.0019457340240478516
0.0019500255584716797
0.001973390579223633
0.0019540786743164062
0.0019490718841552734
0.0019385814666748047
0.0019526481628417969
0.0020110607147216797
0.0019664764404296875
0.0019922256469726562
0.001953601837158203
0.001955747604370117
0.002104520797729492
0.0019979476928710938
0.0019617080688476562
0.001958608627319336
0.001949310302734375
0.0019516944885253906
0.001979351043701172
0.001982450485229492
0.0019550323486328125
0.0019555091857910156
0.0019524097442626953
0.001953601837158203
0.0019500255584716797
0.0019462108612060547
0.0019502639770507812
0.001943349838256836
0.0019505023956298828
0.0019512176513671875
0.001956939697265625
0.0019512176513671875
0.0020368099212646484
0.001993894577026367
0.0019502639770507812
0.0019521713256835938
0.0019516944885253906
0.0019414424896240234
0.001977682113647461
0.0019500255584716797
0.001947164535522461
0.0019431114196777344
0.001978158950805664
0.0019593238830566406
0.0019676685333251953
0.0019407272338867188
0.0019445419311523438
0.0019521713256835938
0.0019686222076416016
0.0019614696502685547
0.0019457340240478516
0.0019497871398925781
0.0019450187683105469
0.0019481182098388672
0.0019714832305908203
0.001971006393432617
0.001940011978149414
0.0019996166229248047
0.001973867416381836
0.0019507408142089844
0.0019867420196533203
0.0019583702087402344
0.00194549560546875
0.0019593238830566406
0.001954793930053711
0.0019903182983398438
0.001947164535522461
0.001988649368286133
0.0019483566284179688
0.0019724369049072266
0.0019381046295166016
0.0019447803497314453
0.0019445419311523438
0.0019321441650390625
0.0019402503967285156
0.001949310302734375
0.0019512176513671875
0.0019447803497314453
0.001988649368286133
0.001955270767211914
0.0019507408142089844
0.0019528865814208984
0.001997232437133789
0.0019960403442382812
0.0019524097442626953
0.001956939697265625
0.0019631385803222656
0.001947641372680664
0.0020112991333007812
0.001958608627319336
0.0019752979278564453
0.0019469261169433594
0.0019462108612060547
0.0019490718841552734
0.0019452571868896484
0.001989126205444336
0.0019457340240478516
0.0019474029541015625
0.0019440650939941406
0.0019693374633789062
0.0019652843475341797
0.0019500255584716797
0.0019431114196777344
0.0019450187683105469
0.0019445419311523438
0.0019412040710449219
0.0019683837890625
0.0020055770874023438
0.0019788742065429688
0.0019490718841552734
0.00196075439453125
0.0019562244415283203
0.0019686222076416016
0.0019690990447998047
0.001947641372680664
0.0019500255584716797
0.001950979232788086
0.0019443035125732422
0.001947641372680664
0.0019385814666748047
0.0019445419311523438
0.001986265182495117
0.0019698143005371094
0.0019447803497314453
0.0019690990447998047
0.001941680908203125
0.0019369125366210938
0.0019507408142089844
0.001940011978149414
0.0019483566284179688
0.0019450187683105469
0.0019464492797851562
0.002013683319091797
0.0019812583923339844
0.001966714859008789
0.001962423324584961
0.0019488334655761719
0.0019485950469970703
0.00196075439453125
0.001956462860107422
0.001947164535522461
0.0019431114196777344
0.001947164535522461
0.0019524097442626953
0.0019445419311523438
0.0019578933715820312
0.0019636154174804688
0.0019719600677490234
0.001947164535522461
0.0019714832305908203
0.0019488334655761719
0.0019409656524658203
0.0019474029541015625
0.0019469261169433594
0.001941680908203125
0.0019381046295166016
0.0019605159759521484
0.004304647445678711
0.002206563949584961
0.00201416015625
0.00199127197265625
0.002012491226196289
0.002036571502685547
0.0019884109497070312
0.0019712448120117188
0.001954317092895508
0.001957416534423828
0.0019571781158447266
0.0020177364349365234
0.0019648075103759766
0.001982450485229492
0.0019626617431640625
0.001959085464477539
0.001964092254638672
0.0019538402557373047
0.001958608627319336
0.0019490718841552734
0.001956939697265625
0.0019583702087402344
0.001951456069946289
0.0019550323486328125
0.0019960403442382812
0.002025604248046875
0.0019693374633789062
0.001956462860107422
0.0019583702087402344
0.001960277557373047
0.0019478797912597656
0.0019598007202148438
0.0019533634185791016
0.001953125
0.001972198486328125
0.001962900161743164
0.002000570297241211
0.0019459724426269531
0.0019462108612060547
0.0019521713256835938
0.0019466876983642578
0.002002716064453125
0.0019562244415283203
0.0019521713256835938
0.0019500255584716797
0.0019617080688476562
0.0020186901092529297
0.0019845962524414062
0.0019452571868896484
0.0019488334655761719
0.002015352249145508
0.0019643306732177734
0.001967906951904297
0.0019698143005371094
0.0019600391387939453
0.001953601837158203
0.001968860626220703
0.0020029544830322266
0.0019681453704833984
0.002063751220703125
0.0020742416381835938
0.002011537551879883
0.0019834041595458984
0.0019807815551757812
0.0019664764404296875
0.001966238021850586
0.001961231231689453
0.0019655227661132812
0.0019626617431640625
0.0019605159759521484
0.001994609832763672
0.002017498016357422
0.001999378204345703
0.001973390579223633
0.0019779205322265625
0.0020198822021484375
0.0019655227661132812
0.002023935317993164
0.001967906951904297
0.0023436546325683594
0.002325296401977539
0.0020208358764648438
0.0020558834075927734
0.001983642578125
0.0022153854370117188
0.001997709274291992
0.001975536346435547
0.0020711421966552734
0.0018265247344970703
0.0018181800842285156
0.0017971992492675781
0.0018017292022705078
0.0018355846405029297
0.0016651153564453125
0.0015881061553955078
0.001592874526977539
0.0015807151794433594
0.0015819072723388672
0.0015459060668945312
0.0015306472778320312
0.001584768295288086
0.0015301704406738281
0.001535177230834961
0.0015239715576171875
0.0015017986297607422
0.0017066001892089844
0.0015575885772705078
0.0015187263488769531
0.0016126632690429688
0.0016133785247802734
0.0015912055969238281
