0.004042863845825195
0.0017135143280029297
0.0017147064208984375
0.0015878677368164062
0.0017042160034179688
0.0015749931335449219
0.0016491413116455078
0.001697540283203125
0.0016529560089111328
0.0016393661499023438
0.0016062259674072266
0.0013148784637451172
0.0013113021850585938
0.0014057159423828125
0.0012733936309814453
0.0016696453094482422
0.0013058185577392578
0.0015058517456054688
0.0013701915740966797
0.0014750957489013672
0.001373291015625
0.00136566162109375
0.001367807388305664
0.0013744831085205078
0.0013682842254638672
0.0013813972473144531
0.0014045238494873047
0.0013265609741210938
0.0013086795806884766
0.0013267993927001953
0.0013053417205810547
0.0012981891632080078
0.0013267993927001953
0.0013937950134277344
0.0013072490692138672
0.0012805461883544922
0.0013070106506347656
0.00144195556640625
0.0013165473937988281
0.0011906623840332031
0.0012278556823730469
0.0011839866638183594
0.0011539459228515625
0.001165151596069336
0.0012402534484863281
0.0011875629425048828
0.0016672611236572266
0.0017440319061279297
0.0017042160034179688
0.001642465591430664
0.0016241073608398438
0.001344442367553711
0.0013875961303710938
0.0013349056243896484
0.0013318061828613281
0.0014429092407226562
0.001508474349975586
0.0015759468078613281
0.0016851425170898438
0.0015876293182373047
0.0016202926635742188
0.0017247200012207031
0.0016946792602539062
0.0017175674438476562
0.0018634796142578125
0.0016374588012695312
0.001706838607788086
0.001737833023071289
0.0017278194427490234
0.00176239013671875
0.0016770362854003906
0.0012569427490234375
0.001355886459350586
0.0013332366943359375
0.0014405250549316406
0.0012555122375488281
0.00118255615234375
0.001264810562133789
0.0012545585632324219
0.0011789798736572266
0.001132965087890625
0.0011265277862548828
0.0011415481567382812
0.001116037368774414
0.001237630844116211
0.0011627674102783203
0.0011649131774902344
0.001142263412475586
0.001131296157836914
0.0011379718780517578
0.001153707504272461
0.0011267662048339844
0.0011782646179199219
0.0011281967163085938
0.001184701919555664
0.0012898445129394531
0.0013628005981445312
0.0013115406036376953
0.0012996196746826172
0.0013394355773925781
0.0013630390167236328
0.0014014244079589844
0.0013229846954345703
0.001275777816772461
0.0013577938079833984
0.0013048648834228516
0.0011878013610839844
0.0014154911041259766
0.0016787052154541016
0.0015459060668945312
0.0014202594757080078
0.0016281604766845703
0.001653432846069336
0.00170135498046875
0.0017693042755126953
0.0017189979553222656
0.001720428466796875
0.001310586929321289
0.0014448165893554688
0.0015339851379394531
0.001374959945678711
0.0013842582702636719
0.0013127326965332031
0.0013949871063232422
0.001421213150024414
0.0014789104461669922
0.0014462471008300781
0.0014243125915527344
0.0015568733215332031
0.0014164447784423828
0.001394510269165039
0.0013277530670166016
0.0014007091522216797
0.0013954639434814453
0.0013244152069091797
0.0014736652374267578
0.0013594627380371094
0.0012505054473876953
0.0012066364288330078
0.0012326240539550781
0.00124359130859375
0.0011754035949707031
0.0011522769927978516
0.0011560916900634766
0.0013077259063720703
0.002087116241455078
0.0016448497772216797
0.0014653205871582031
0.0022153854370117188
0.005385637283325195
0.002177000045776367
0.001432180404663086
0.0016567707061767578
0.0015637874603271484
0.0015158653259277344
0.0015566349029541016
0.0015864372253417969
0.00131988525390625
0.0012929439544677734
0.0015482902526855469
0.0014119148254394531
0.0013966560363769531
0.001383066177368164
0.0013954639434814453
0.0018901824951171875
0.0014221668243408203
0.0015895366668701172
0.0014925003051757812
0.001680612564086914
0.0017931461334228516
0.0016393661499023438
0.0017216205596923828
0.0016300678253173828
0.0018153190612792969
0.001413106918334961
0.001440286636352539
0.0016858577728271484
0.0014116764068603516
0.0017175674438476562
0.0015685558319091797
0.0017042160034179688
0.0017044544219970703
0.0015892982482910156
0.0048711299896240234
0.002252340316772461
0.0020601749420166016
0.002187013626098633
0.0014903545379638672
0.0014827251434326172
0.0014460086822509766
0.0014350414276123047
0.001611948013305664
0.0018591880798339844
0.0018470287322998047
0.00200653076171875
0.001913309097290039
0.0018417835235595703
0.00196075439453125
0.0018970966339111328
0.0018656253814697266
0.0019168853759765625
0.002087116241455078
0.0020656585693359375
0.0018665790557861328
0.001903533935546875
0.0019063949584960938
0.00193023681640625
0.002018451690673828
0.0019004344940185547
0.0019047260284423828
0.0018911361694335938
0.0018455982208251953
0.0018391609191894531
0.001850128173828125
0.001842498779296875
0.0018758773803710938
0.0018620491027832031
0.002040386199951172
0.0020351409912109375
0.002033233642578125
0.0019643306732177734
0.0018420219421386719
0.0020685195922851562
0.0019609928131103516
0.0020635128021240234
0.0018858909606933594
0.002166748046875
0.002277851104736328
0.0015289783477783203
0.0018448829650878906
0.0019316673278808594
0.0014240741729736328
0.0015158653259277344
0.0014827251434326172
0.0015065670013427734
0.001463174819946289
0.001524209976196289
0.0013988018035888672
0.001485586166381836
0.0014200210571289062
0.0014102458953857422
0.0015630722045898438
0.001779317855834961
0.0018162727355957031
0.0017244815826416016
0.0017669200897216797
0.001607656478881836
0.0016274452209472656
0.0015637874603271484
0.0015048980712890625
0.0014464855194091797
0.0014393329620361328
0.0016727447509765625
0.0015871524810791016
0.0014812946319580078
0.0013549327850341797
0.0013244152069091797
0.0013210773468017578
0.0013082027435302734
0.0017833709716796875
0.001341104507446289
0.0013232231140136719
0.001325368881225586
0.0018281936645507812
0.002025604248046875
0.0016434192657470703
0.0016570091247558594
0.001615285873413086
0.001880645751953125
0.0018570423126220703
0.0018353462219238281
0.0018415451049804688
0.0018007755279541016
0.0016851425170898438
0.0017771720886230469
0.0020647048950195312
0.0019097328186035156
0.0017218589782714844
0.0018439292907714844
0.001798868179321289
0.0018219947814941406
0.0018131732940673828
0.0025305747985839844
0.001712799072265625
0.0018715858459472656
0.0018548965454101562
0.0018329620361328125
0.0018236637115478516
0.0016658306121826172
0.00164794921875
0.0016319751739501953
0.0016596317291259766
0.0016205310821533203
0.001552581787109375
0.0015757083892822266
0.001537322998046875
0.0015728473663330078
0.001577615737915039
0.0017757415771484375
0.00191497802734375
0.0017540454864501953
0.0017154216766357422
0.0017545223236083984
0.001741170883178711
0.0018620491027832031
0.0023353099822998047
0.0022735595703125
0.002343416213989258
0.0023374557495117188
0.0017199516296386719
0.0017161369323730469
0.0017809867858886719
0.0026519298553466797
0.0017170906066894531
0.0017001628875732422
0.0018291473388671875
0.001645803451538086
0.001837015151977539
0.0017039775848388672
0.0018835067749023438
0.0020363330841064453
0.0021741390228271484
0.0020494461059570312
0.0023469924926757812
0.0016527175903320312
0.0017387866973876953
0.0017275810241699219
0.002696514129638672
0.0019915103912353516
0.002252340316772461
0.002409219741821289
0.002207517623901367
0.0019485950469970703
0.0016932487487792969
0.0014071464538574219
0.0014061927795410156
0.00183868408203125
0.0017719268798828125
0.0013523101806640625
0.0015523433685302734
0.0019161701202392578
0.001695871353149414
0.001977682113647461
0.002055644989013672
0.0017228126525878906
0.0017266273498535156
0.0017426013946533203
0.001827239990234375
0.0016431808471679688
0.0017702579498291016
0.0016994476318359375
0.001720428466796875
0.001848459243774414
0.0020651817321777344
0.0014541149139404297
0.001729726791381836
0.0017044544219970703
0.00150299072265625
0.001535177230834961
0.001779317855834961
0.0014562606811523438
0.001481771469116211
0.001486063003540039
0.0018684864044189453
0.0015316009521484375
0.00164031982421875
0.0015075206756591797
0.0018949508666992188
0.001806497573852539
0.0015416145324707031
0.0017199516296386719
0.0016283988952636719
0.0016283988952636719
0.0015842914581298828
0.0015976428985595703
0.0014812946319580078
0.0016949176788330078
0.0015833377838134766
0.0018956661224365234
0.0017490386962890625
0.0016391277313232422
0.0017459392547607422
0.0015559196472167969
0.00160980224609375
0.0017251968383789062
0.0014677047729492188
0.0014739036560058594
0.001617431640625
0.0015256404876708984
0.0015423297882080078
0.001856088638305664
0.001577615737915039
0.0018031597137451172
0.0014617443084716797
0.0013811588287353516
0.0014595985412597656
0.0014274120330810547
0.0014483928680419922
0.0014472007751464844
0.0014772415161132812
0.0015490055084228516
0.0016489028930664062
0.0015494823455810547
0.001432657241821289
0.005025386810302734
0.0014901161193847656
0.002126455307006836
0.0015001296997070312
0.0013470649719238281
0.0015556812286376953
0.00308990478515625
0.0016217231750488281
0.001646280288696289
0.0015666484832763672
0.0015947818756103516
0.0014264583587646484
0.0014142990112304688
0.0017049312591552734
0.0015358924865722656
0.0021026134490966797
0.0016667842864990234
0.0014524459838867188
0.001363515853881836
0.001523733139038086
0.0016736984252929688
0.0015902519226074219
0.0014183521270751953
0.0013988018035888672
0.0014781951904296875
0.0015344619750976562
0.0022749900817871094
0.0021638870239257812
0.001550436019897461
0.0014123916625976562
0.0020842552185058594
0.00151824951171875
0.0016391277313232422
0.0014643669128417969
0.0016980171203613281
0.0015106201171875
0.0014414787292480469
0.0014691352844238281
0.0014832019805908203
0.0017380714416503906
0.0015511512756347656
0.001590728759765625
0.001401662826538086
0.0014867782592773438
0.0014982223510742188
0.0014183521270751953
0.0014493465423583984
0.001461029052734375
0.0013270378112792969
0.0015642642974853516
0.0013244152069091797
0.0013060569763183594
0.0013146400451660156
0.0013108253479003906
0.0013461112976074219
0.0011856555938720703
0.001142263412475586
0.0011091232299804688
0.001178741455078125
0.0011296272277832031
0.0011174678802490234
0.0013017654418945312
0.0012822151184082031
0.0012826919555664062
0.0013089179992675781
0.0012865066528320312
0.0017271041870117188
0.0016505718231201172
0.0014119148254394531
0.0017244815826416016
0.0016124248504638672
0.0016047954559326172
0.0015916824340820312
0.0015919208526611328
0.0015769004821777344
0.003534078598022461
0.0018677711486816406
0.0017940998077392578
0.002095460891723633
0.0024352073669433594
0.0023064613342285156
0.0020232200622558594
0.0016782283782958984
0.0016307830810546875
0.0017881393432617188
0.0017099380493164062
0.0016925334930419922
0.0017747879028320312
0.0019023418426513672
0.0018532276153564453
0.0016548633575439453
0.0017943382263183594
0.001531362533569336
0.0014958381652832031
0.0014772415161132812
0.00146484375
0.0021016597747802734
0.002082347869873047
0.0020759105682373047
0.0020771026611328125
0.0020678043365478516
0.002131938934326172
0.0018830299377441406
0.0018720626831054688
0.0018639564514160156
0.0018835067749023438
0.0018987655639648438
0.001867055892944336
0.0018601417541503906
0.0018601417541503906
0.0018763542175292969
0.0018665790557861328
0.001905202865600586
0.0019125938415527344
0.0021331310272216797
0.0017342567443847656
0.001734018325805664
0.0016603469848632812
0.0015990734100341797
0.0016431808471679688
0.0015840530395507812
0.0015857219696044922
0.0016765594482421875
0.0019180774688720703
0.001898050308227539
0.0018825531005859375
0.0018684864044189453
0.0018761157989501953
0.0018718242645263672
0.0018734931945800781
0.0018620491027832031
0.0018656253814697266
0.0018661022186279297
0.0017185211181640625
0.0020592212677001953
0.0020232200622558594
0.0019474029541015625
0.0018644332885742188
0.0016202926635742188
0.0014946460723876953
0.0014216899871826172
0.0013930797576904297
0.0016360282897949219
0.0017445087432861328
0.0017199516296386719
0.0017330646514892578
0.0017206668853759766
0.00179290771484375
0.0018548965454101562
0.0018527507781982422
0.0018455982208251953
0.0018873214721679688
0.0018842220306396484
0.0018842220306396484
0.001865386962890625
0.0018665790557861328
0.0018901824951171875
0.0018687248229980469
0.0018956661224365234
0.0021317005157470703
0.0021982192993164062
0.002212047576904297
0.002168416976928711
0.002164125442504883
0.0014204978942871094
0.0014581680297851562
0.0014483928680419922
0.001430511474609375
0.0014271736145019531
0.0015931129455566406
0.0013971328735351562
0.0012242794036865234
0.0012066364288330078
0.0011911392211914062
0.0011823177337646484
0.0011720657348632812
0.0011839866638183594
0.0011756420135498047
0.0011775493621826172
0.0011832714080810547
0.0011708736419677734
0.0012099742889404297
0.001172780990600586
0.0011701583862304688
0.0012695789337158203
0.0012631416320800781
0.0013632774353027344
0.001207590103149414
0.0012333393096923828
0.0011992454528808594
0.001195669174194336
0.0011761188507080078
0.001420736312866211
0.0012025833129882812
0.0012049674987792969
0.0012118816375732422
0.0011889934539794922
0.0012102127075195312
0.0011763572692871094
0.0011932849884033203
0.001739501953125
0.0017371177673339844
0.0017354488372802734
0.0017242431640625
0.0018932819366455078
0.0018775463104248047
0.0019047260284423828
0.0018725395202636719
0.0018641948699951172
0.001870870590209961
0.0018651485443115234
0.0018620491027832031
0.0018579959869384766
0.0018811225891113281
0.001901865005493164
0.0018966197967529297
0.001878976821899414
0.001873016357421875
0.001859903335571289
0.0018720626831054688
0.0018682479858398438
0.001865386962890625
0.0018606185913085938
0.0018627643585205078
0.0018601417541503906
0.0019130706787109375
0.0018811225891113281
0.001886606216430664
0.0018756389617919922
0.0018696784973144531
0.0018723011016845703
0.0018727779388427734
0.0018630027770996094
0.0018663406372070312
0.001863718032836914
0.0018711090087890625
0.0018589496612548828
0.001878976821899414
0.001890420913696289
0.00186920166015625
0.001918792724609375
0.0018718242645263672
0.0018610954284667969
0.001855611801147461
0.0018782615661621094
0.001909494400024414
0.0018661022186279297
0.0018658638000488281
0.0018701553344726562
0.0019464492797851562
0.001922607421875
0.0018868446350097656
0.0018680095672607422
0.0018723011016845703
0.0018677711486816406
0.0018849372863769531
0.001873016357421875
0.0018682479858398438
0.0018646717071533203
0.0018677711486816406
0.0018639564514160156
0.0018999576568603516
0.0018634796142578125
0.0018737316131591797
0.0018849372863769531
0.0018765926361083984
0.0019369125366210938
0.0018830299377441406
0.0019173622131347656
0.001926422119140625
0.0018808841705322266
0.0019598007202148438
0.0018720626831054688
0.0018687248229980469
0.0018622875213623047
0.0018651485443115234
0.0018622875213623047
0.0018687248229980469
0.0018639564514160156
0.0018928050994873047
0.0018875598907470703
0.001909017562866211
0.0018985271453857422
0.0018732547760009766
0.0018863677978515625
0.0018877983093261719
0.001867532730102539
0.0018754005432128906
0.0019054412841796875
0.0018699169158935547
0.0018825531005859375
0.0018701553344726562
0.0018775463104248047
0.0018725395202636719
0.0018985271453857422
0.0018689632415771484
0.0018932819366455078
0.0018842220306396484
0.0018696784973144531
0.0018701553344726562
0.0019636154174804688
0.001981496810913086
0.0019445419311523438
0.0018951892852783203
0.0018863677978515625
0.0018842220306396484
0.0018820762634277344
0.00189208984375
0.0018835067749023438
0.0019168853759765625
0.0018968582153320312
0.001886606216430664
0.0018768310546875
0.0018782615661621094
0.0018715858459472656
0.0018887519836425781
0.0018770694732666016
0.0019083023071289062
0.0019578933715820312
0.0018849372863769531
0.0023419857025146484
0.0019199848175048828
0.001911163330078125
0.0019450187683105469
0.0019023418426513672
0.0019330978393554688
0.0019001960754394531
0.0018877983093261719
0.0019042491912841797
0.001970529556274414
0.002007007598876953
0.0019066333770751953
0.0019009113311767578
0.0019061565399169922
0.0019078254699707031
0.0019028186798095703
0.0018856525421142578
0.0019278526306152344
0.0018885135650634766
0.0019435882568359375
0.0019197463989257812
0.0021142959594726562
0.0019195079803466797
0.0019032955169677734
0.0018918514251708984
0.0019059181213378906
0.0018725395202636719
0.001871347427368164
0.0018992424011230469
0.0018851757049560547
0.0018737316131591797
0.0018851757049560547
0.0018877983093261719
0.0018990039825439453
0.0019011497497558594
0.0018706321716308594
0.001878976821899414
0.0019164085388183594
0.0018696784973144531
0.001911163330078125
0.0019023418426513672
0.0018849372863769531
0.0019061565399169922
0.0018780231475830078
0.0019261837005615234
0.0018820762634277344
0.0019106864929199219
0.0019030570983886719
0.0019106864929199219
0.0018763542175292969
0.0018792152404785156
0.001874685287475586
0.0018851757049560547
0.0018796920776367188
0.0018930435180664062
0.001909494400024414
0.0018970966339111328
0.0019085407257080078
0.0018832683563232422
0.0018768310546875
0.0018842220306396484
0.0018739700317382812
0.0018744468688964844
0.001870870590209961
0.0018808841705322266
0.0018792152404785156
0.001874685287475586
0.0018954277038574219
0.001870870590209961
0.0018720626831054688
0.0019252300262451172
0.0018830299377441406
0.0018727779388427734
0.0018758773803710938
0.0018665790557861328
0.0018994808197021484
0.0018711090087890625
0.0018701553344726562
0.0018963813781738281
0.0019140243530273438
0.0019152164459228516
0.001882314682006836
0.00186920166015625
0.0018742084503173828
0.001886606216430664
0.0019268989562988281
0.0018990039825439453
0.0018894672393798828
0.0018842220306396484
0.001873016357421875
0.0019063949584960938
0.0018846988677978516
0.0018773078918457031
0.0018768310546875
0.0018761157989501953
0.0018749237060546875
0.0018770694732666016
0.0018775463104248047
0.0018732547760009766
0.001873016357421875
0.0021529197692871094
0.0022792816162109375
0.001985311508178711
0.001802206039428711
0.0017626285552978516
0.001764059066772461
0.001828908920288086
0.0019156932830810547
0.0018811225891113281
0.0018839836120605469
0.0018849372863769531
0.001961231231689453
0.0018830299377441406
0.0019104480743408203
0.0018777847290039062
0.0019085407257080078
0.0018897056579589844
0.0018892288208007812
0.0018799304962158203
0.0018782615661621094
0.0018956661224365234
0.0018846988677978516
0.0018858909606933594
0.0018885135650634766
0.001882314682006836
0.0018918514251708984
0.001875162124633789
0.0018825531005859375
0.0018701553344726562
0.0018830299377441406
0.0018715858459472656
0.001909494400024414
0.0019273757934570312
0.0018782615661621094
0.0018699169158935547
0.0018694400787353516
0.0018999576568603516
0.0019083023071289062
0.0018723011016845703
0.0018723011016845703
0.0018689632415771484
0.001878499984741211
0.0019061565399169922
0.0018749237060546875
0.0018656253814697266
0.0018923282623291016
0.0019021034240722656
0.001889944076538086
0.0019228458404541016
0.001886606216430664
0.0018754005432128906
0.0018758773803710938
0.0018944740295410156
0.0018837451934814453
0.0018842220306396484
0.0018749237060546875
0.0019664764404296875
0.0019075870513916016
0.0018854141235351562
0.0019061565399169922
0.0018787384033203125
0.0018744468688964844
0.0018725395202636719
0.0018832683563232422
0.0018754005432128906
0.001878499984741211
0.0018804073333740234
0.001889944076538086
0.0019299983978271484
0.0019230842590332031
0.0019047260284423828
0.0018842220306396484
0.0018749237060546875
0.0018763542175292969
0.0018842220306396484
0.0018911361694335938
0.0018880367279052734
0.0018839836120605469
0.0018794536590576172
0.0018787384033203125
0.0019359588623046875
0.0018928050994873047
0.001928091049194336
0.0018825531005859375
0.001971006393432617
0.0018858909606933594
0.001880645751953125
0.0018782615661621094
0.0018796920776367188
0.0018832683563232422
0.0018830299377441406
0.0018742084503173828
0.001916646957397461
0.0018851757049560547
0.0018832683563232422
0.0018770694732666016
0.0018856525421142578
0.0018780231475830078
0.0018808841705322266
0.0018916130065917969
0.0018804073333740234
0.0018818378448486328
0.001880645751953125
0.0019042491912841797
0.0019197463989257812
0.001979351043701172
0.0019114017486572266
0.0018928050994873047
0.001878976821899414
0.001918792724609375
0.0018787384033203125
0.0018801689147949219
0.0018744468688964844
0.0018811225891113281
0.0018768310546875
0.0019216537475585938
0.0018999576568603516
0.0018875598907470703
0.0018832683563232422
0.0019931793212890625
0.0019488334655761719
0.0019154548645019531
0.0018956661224365234
0.0018894672393798828
0.0018894672393798828
0.0018932819366455078
0.0019061565399169922
0.0018815994262695312
0.0019130706787109375
0.0018794536590576172
0.0018832683563232422
0.00189208984375
0.0018849372863769531
0.0018820762634277344
0.00188446044921875
0.0018775463104248047
0.0019228458404541016
0.0019092559814453125
0.0018856525421142578
0.0018913745880126953
0.0019116401672363281
0.0018765926361083984
0.0018804073333740234
0.0018808841705322266
0.0018758773803710938
0.0019152164459228516
0.0018792152404785156
0.0018813610076904297
0.0018897056579589844
0.0019288063049316406
0.0019240379333496094
0.001909494400024414
0.0018885135650634766
0.0018954277038574219
0.0018889904022216797
0.0018868446350097656
0.001659393310546875
0.0016369819641113281
0.0016283988952636719
0.0016279220581054688
0.0016245841979980469
0.00156402587890625
0.0015573501586914062
0.0015363693237304688
0.0015339851379394531
0.0015320777893066406
0.0016026496887207031
0.00147247314453125
0.0014657974243164062
0.001474618911743164
0.0014734268188476562
0.0016815662384033203
0.0015823841094970703
0.0015571117401123047
0.0015718936920166016
0.0015370845794677734
0.001619100570678711
0.0014774799346923828
0.0014634132385253906
0.001462697982788086
0.00145721435546875
0.001458883285522461
0.0015592575073242188
0.0015363693237304688
0.0017619132995605469
0.0016107559204101562
0.0015666484832763672
0.0014967918395996094
0.0014929771423339844
0.0014677047729492188
0.0014643669128417969
0.0014591217041015625
0.0015079975128173828
0.0014638900756835938
0.0014579296112060547
0.0014624595642089844
0.0014948844909667969
0.0015866756439208984
0.0015366077423095703
0.0015692710876464844
0.001558542251586914
0.0015361309051513672
0.0015971660614013672
0.0014674663543701172
0.0014598369598388672
0.0014562606811523438
0.0014548301696777344
0.0014812946319580078
0.0015671253204345703
0.0015985965728759766
0.0015485286712646484
0.0015687942504882812
0.0016090869903564453
0.0014786720275878906
0.0014629364013671875
0.0014624595642089844
0.00146484375
0.0015308856964111328
0.0015468597412109375
0.0015416145324707031
0.0015935897827148438
0.0015347003936767578
0.0015320777893066406
0.0014693737030029297
0.0014650821685791016
0.0014553070068359375
0.0014722347259521484
0.0014560222625732422
0.001459360122680664
0.001461029052734375
0.0014636516571044922
0.0014619827270507812
0.0014545917510986328
0.0016129016876220703
0.0015459060668945312
0.0015721321105957031
0.001560211181640625
0.001573801040649414
0.0015399456024169922
0.0014371871948242188
0.00141143798828125
0.0014300346374511719
0.001421213150024414
0.0014312267303466797
0.0014796257019042969
0.0014982223510742188
0.001468658447265625
0.0014929771423339844
0.0014603137969970703
0.001617431640625
0.001561880111694336
0.0016579627990722656
0.001645803451538086
0.0016324520111083984
0.0016050338745117188
0.0014657974243164062
0.001432180404663086
0.0014376640319824219
0.0014100074768066406
0.0014498233795166016
0.0015027523040771484
0.00150299072265625
0.001468658447265625
0.0014989376068115234
0.0014638900756835938
0.0015063285827636719
0.0014750957489013672
0.0014960765838623047
0.001458883285522461
0.0014925003051757812
0.001485586166381836
0.0014955997467041016
0.0014929771423339844
0.0015053749084472656
0.001497507095336914
0.0015902519226074219
0.001538991928100586
0.001567840576171875
0.0014920234680175781
0.0015308856964111328
0.0014803409576416016
0.0014698505401611328
0.0014607906341552734
0.0014579296112060547
0.0014901161193847656
0.0019676685333251953
0.001959085464477539
0.0019404888153076172
0.001912832260131836
0.0018892288208007812
0.0019259452819824219
0.001911163330078125
0.0019249916076660156
0.0019016265869140625
0.0018906593322753906
0.0018913745880126953
0.0019011497497558594
0.001895904541015625
0.0019116401672363281
0.0018954277038574219
0.001918792724609375
0.0018875598907470703
0.001898050308227539
0.0018839836120605469
0.0018918514251708984
0.0019145011901855469
0.0018868446350097656
0.0018894672393798828
0.00189208984375
0.0018837451934814453
0.0019359588623046875
0.0018916130065917969
0.0018885135650634766
0.0018913745880126953
0.0018873214721679688
0.0019054412841796875
0.0019123554229736328
0.0019049644470214844
0.0019156932830810547
0.0018877983093261719
0.0019061565399169922
0.0019085407257080078
0.001888275146484375
0.0019049644470214844
0.0018873214721679688
0.001889944076538086
0.0018887519836425781
0.0018913745880126953
0.0018951892852783203
0.0018837451934814453
0.0018870830535888672
0.001920938491821289
0.001912832260131836
0.0018913745880126953
0.0018892288208007812
0.0018968582153320312
0.0019154548645019531
0.0018885135650634766
0.0019199848175048828
0.001893758773803711
0.0018854141235351562
0.001939535140991211
0.001890420913696289
0.0018877983093261719
0.0019202232360839844
0.0018908977508544922
0.0019369125366210938
0.0018987655639648438
0.0018932819366455078
0.0018835067749023438
0.0018901824951171875
0.001916646957397461
0.0018963813781738281
0.0018851757049560547
0.0018875598907470703
0.0018968582153320312
0.0018849372863769531
0.0019426345825195312
0.001958608627319336
0.001967906951904297
0.002291440963745117
0.002009153366088867
0.0019736289978027344
0.001992940902709961
0.0019330978393554688
0.0019905567169189453
0.0019159317016601562
0.001989126205444336
0.002005338668823242
0.001983165740966797
0.0019345283508300781
0.0019638538360595703
0.0019164085388183594
0.0019168853759765625
0.0022194385528564453
0.002130270004272461
0.0019769668579101562
0.0019330978393554688
0.0018036365509033203
0.0017955303192138672
0.0017986297607421875
0.0017499923706054688
0.0017533302307128906
0.0019199848175048828
0.0019011497497558594
0.00199127197265625
0.001973390579223633
0.0019261837005615234
0.0019106864929199219
0.0019025802612304688
0.0019173622131347656
0.0019025802612304688
0.0019304752349853516
0.0019342899322509766
0.0018973350524902344
0.001890420913696289
0.00193023681640625
0.0019025802612304688
0.0018925666809082031
0.0019004344940185547
0.0018944740295410156
0.0018947124481201172
0.001888275146484375
0.0019192695617675781
0.0018935203552246094
0.0018982887268066406
0.0019159317016601562
0.001894235610961914
0.0018994808197021484
0.001901865005493164
0.0019037723541259766
0.0018894672393798828
0.0019040107727050781
0.0019075870513916016
0.0018956661224365234
0.0019118785858154297
0.0018880367279052734
0.0018877983093261719
0.0018954277038574219
0.0019431114196777344
0.0019593238830566406
0.0020689964294433594
0.0019314289093017578
0.0019159317016601562
0.0019578933715820312
0.001905202865600586
0.0019271373748779297
0.0018999576568603516
0.002162933349609375
0.0020608901977539062
0.0017871856689453125
0.0017616748809814453
0.0017414093017578125
0.0017659664154052734
0.002039670944213867
0.0019550323486328125
0.002024412155151367
0.0019464492797851562
0.0019643306732177734
0.0019652843475341797
0.0020203590393066406
0.0019314289093017578
0.0019195079803466797
0.0019114017486572266
0.0019142627716064453
0.0019102096557617188
0.001911163330078125
0.0019311904907226562
0.0019481182098388672
0.0019378662109375
0.0019156932830810547
0.0019063949584960938
0.0019388198852539062
0.0019114017486572266
0.0019931793212890625
0.0019259452819824219
0.0019185543060302734
0.0019071102142333984
0.0019071102142333984
0.001949310302734375
0.0019257068634033203
0.0020296573638916016
0.0019118785858154297
0.0019109249114990234
0.0019106864929199219
0.0019450187683105469
0.0019338130950927734
0.0019118785858154297
0.0019330978393554688
0.0019075870513916016
0.0019423961639404297
0.0020895004272460938
0.0024411678314208984
0.0019936561584472656
0.0019872188568115234
0.002025127410888672
0.0017910003662109375
0.0017583370208740234
0.001772165298461914
0.0017619132995605469
0.0018393993377685547
0.0019221305847167969
0.001916646957397461
0.001916646957397461
0.0019135475158691406
0.0019023418426513672
0.0019092559814453125
0.001901388168334961
0.0019147396087646484
0.0019047260284423828
0.001898050308227539
0.0019087791442871094
0.0019042491912841797
0.0019321441650390625
0.0019092559814453125
0.0019254684448242188
0.0019304752349853516
0.0019185543060302734
0.0019140243530273438
0.0019044876098632812
0.0019338130950927734
0.0019097328186035156
0.0019044876098632812
0.0019042491912841797
0.001936197280883789
0.0019211769104003906
0.0019192695617675781
0.001903533935546875
0.0019009113311767578
0.0018913745880126953
0.0018970966339111328
0.0019278526306152344
0.0018970966339111328
0.0018985271453857422
0.001905202865600586
0.0019030570983886719
0.0019474029541015625
0.0019028186798095703
0.0019390583038330078
0.0018968582153320312
0.0019156932830810547
0.0019459724426269531
0.0019109249114990234
0.0019049644470214844
0.0019001960754394531
0.0018978118896484375
0.001911163330078125
0.001924276351928711
0.0019047260284423828
0.002214193344116211
0.0019664764404296875
0.0019538402557373047
0.0018172264099121094
0.0017778873443603516
0.0017695426940917969
0.0017652511596679688
0.0017774105072021484
0.001947164535522461
0.0019185543060302734
0.001990795135498047
0.0019207000732421875
0.0019176006317138672
0.0019185543060302734
0.0019037723541259766
0.0019021034240722656
0.001895904541015625
0.0019063949584960938
0.0019164085388183594
0.0019030570983886719
0.0019021034240722656
0.0019054412841796875
0.0019054412841796875
0.0019702911376953125
0.0019421577453613281
0.0019068717956542969
0.0019023418426513672
0.0019297599792480469
0.0019423961639404297
0.0019083023071289062
0.0019037723541259766
0.0019040107727050781
0.0019099712371826172
0.0019648075103759766
0.0019109249114990234
0.0019180774688720703
0.0019140243530273438
0.0018994808197021484
0.001898050308227539
0.0019297599792480469
0.0019114017486572266
0.0019230842590332031
0.0019023418426513672
0.0019338130950927734
0.0019156932830810547
0.001922607421875
0.0019359588623046875
0.0019063949584960938
0.0019099712371826172
0.0019118785858154297
0.0019037723541259766
0.001971721649169922
0.001918792724609375
0.0019009113311767578
0.0019268989562988281
0.0019121170043945312
0.0019190311431884766
0.001935720443725586
0.0019516944885253906
0.0019292831420898438
0.0019176006317138672
0.0019159317016601562
0.001909017562866211
0.0019440650939941406
0.0019450187683105469
0.0019164085388183594
0.0019125938415527344
0.0019230842590332031
0.0019195079803466797
0.0019469261169433594
0.001912832260131836
0.0019135475158691406
0.0019085407257080078
0.0019073486328125
0.0019071102142333984
0.0019500255584716797
0.001911163330078125
0.0019061565399169922
0.0019104480743408203
0.0019223690032958984
0.0019185543060302734
0.0019252300262451172
0.001903533935546875
0.0019073486328125
0.0019087791442871094
0.0019152164459228516
0.0019097328186035156
0.0019257068634033203
0.0019178390502929688
0.0019118785858154297
0.0019245147705078125
0.0019257068634033203
0.0019412040710449219
0.0019073486328125
0.0019338130950927734
0.002054452896118164
0.002050161361694336
0.001964569091796875
0.001957416534423828
0.0019321441650390625
0.001963376998901367
0.0019218921661376953
0.0019488334655761719
0.0019190311431884766
0.0019183158874511719
0.0019073486328125
0.001943826675415039
0.0019466876983642578
0.0019180774688720703
0.001918792724609375
0.0019083023071289062
0.0019397735595703125
0.0019183158874511719
0.002288818359375
0.001967906951904297
0.001954793930053711
0.0019652843475341797
0.001957416534423828
0.0019459724426269531
0.0019497871398925781
0.001920938491821289
0.0019464492797851562
0.0019237995147705078
0.0019237995147705078
0.0020029544830322266
0.0020062923431396484
0.001959562301635742
0.0019440650939941406
0.0022361278533935547
0.0019526481628417969
0.0019235610961914062
0.001926422119140625
0.0019135475158691406
0.0019414424896240234
0.0022554397583007812
0.0019328594207763672
0.0019397735595703125
0.0019299983978271484
0.0019481182098388672
0.0019147396087646484
0.0019252300262451172
0.0019526481628417969
0.0020754337310791016
0.001961231231689453
0.0019299983978271484
0.0019307136535644531
0.0019259452819824219
0.001985311508178711
0.0019559860229492188
0.0019404888153076172
0.0019178390502929688
0.0019202232360839844
0.0019145011901855469
0.0019156932830810547
0.0019104480743408203
0.0023207664489746094
0.0019736289978027344
0.0019583702087402344
0.0019330978393554688
0.0020759105682373047
0.0019421577453613281
0.0019528865814208984
0.0019354820251464844
0.001974344253540039
0.0019178390502929688
0.0019164085388183594
0.0019154548645019531
0.0019233226776123047
0.0019214153289794922
0.0019142627716064453
0.0019469261169433594
0.0019292831420898438
0.0019373893737792969
0.0019125938415527344
0.0019161701202392578
0.0019168853759765625
0.0019071102142333984
0.001995086669921875
0.0019321441650390625
0.001973867416381836
0.0019230842590332031
0.001916646957397461
0.002102375030517578
0.0019464492797851562
0.001963376998901367
0.001928091049194336
0.0020737648010253906
0.002162456512451172
0.0020270347595214844
0.0019593238830566406
0.001990795135498047
0.001985788345336914
0.0019404888153076172
0.0019397735595703125
0.0019266605377197266
0.0019485950469970703
0.0019178390502929688
0.001924276351928711
0.0019638538360595703
0.0019161701202392578
0.0019125938415527344
0.001961231231689453
0.0019559860229492188
0.0019223690032958984
0.0019378662109375
0.0019412040710449219
0.0019228458404541016
0.0019683837890625
0.0019197463989257812
0.0019297599792480469
0.0019197463989257812
0.0021021366119384766
0.002123594284057617
0.0021665096282958984
0.0021598339080810547
0.0023441314697265625
0.002664327621459961
0.0022017955780029297
0.002034425735473633
0.0017104148864746094
0.0016949176788330078
0.0016734600067138672
0.0016705989837646484
0.00165557861328125
0.00191497802734375
0.0021390914916992188
0.0021686553955078125
0.002130270004272461
0.0021419525146484375
0.0021796226501464844
0.0019621849060058594
0.0019745826721191406
0.0019292831420898438
0.0019180774688720703
0.0019266605377197266
0.001916646957397461
0.0019185543060302734
0.0019397735595703125
0.0019240379333496094
0.001967906951904297
0.0019259452819824219
0.0020215511322021484
0.001967191696166992
0.0019524097442626953
0.0019252300262451172
0.0019245147705078125
0.0019867420196533203
0.0019292831420898438
0.0019249916076660156
0.0019195079803466797
0.0019223690032958984
0.0019545555114746094
0.0019412040710449219
0.0019533634185791016
0.001924753189086914
0.0019195079803466797
0.0019195079803466797
0.0019147396087646484
0.0019185543060302734
0.0019145011901855469
0.0019295215606689453
0.0019109249114990234
0.0019183158874511719
0.0019276142120361328
0.0019991397857666016
0.002021312713623047
0.0017957687377929688
0.0018010139465332031
0.0017888545989990234
0.0017747879028320312
0.0017771720886230469
0.0015027523040771484
0.0014934539794921875
0.0014896392822265625
0.0014874935150146484
0.0015492439270019531
0.0016245841979980469
0.0015759468078613281
0.0015707015991210938
0.0015649795532226562
0.00156402587890625
0.0016350746154785156
0.0014963150024414062
0.001505136489868164
0.0014905929565429688
0.001486063003540039
0.001524209976196289
0.0015993118286132812
0.0015714168548583984
0.0015804767608642578
0.0015718936920166016
0.0016558170318603516
0.0015132427215576172
0.0014901161193847656
0.0014863014221191406
0.0014858245849609375
0.001485586166381836
0.0016245841979980469
0.0015854835510253906
0.001604318618774414
0.0015642642974853516
0.0015611648559570312
0.0015697479248046875
0.001558065414428711
0.001756429672241211
0.0015740394592285156
0.0015671253204345703
0.0015094280242919922
0.0014920234680175781
0.0015103816986083984
0.001528024673461914
0.0014863014221191406
0.0015828609466552734
0.0015718936920166016
0.0015707015991210938
0.0015664100646972656
0.0015683174133300781
0.0016632080078125
0.0015032291412353516
0.0015091896057128906
0.0014946460723876953
0.0014948844909667969
0.0015392303466796875
0.00157928466796875
0.0015687942504882812
0.0015652179718017578
0.0015680789947509766
0.0016183853149414062
0.0015091896057128906
0.001493215560913086
0.0014934539794921875
0.0014963150024414062
0.0015978813171386719
0.0016202926635742188
0.001621246337890625
0.0015900135040283203
0.0015769004821777344
0.0015714168548583984
0.0015168190002441406
0.0014903545379638672
0.0014972686767578125
0.0014863014221191406
0.0015056133270263672
0.001495361328125
0.0015180110931396484
0.001495361328125
0.00148773193359375
0.0014939308166503906
0.0016126632690429688
0.001569509506225586
0.001569509506225586
0.0015654563903808594
0.0015702247619628906
0.0016379356384277344
0.0014984607696533203
0.0015385150909423828
0.0015347003936767578
0.0015108585357666016
0.001523733139038086
0.0015866756439208984
0.001575469970703125
0.0015728473663330078
0.0015721321105957031
0.0017025470733642578
0.0015208721160888672
0.001500844955444336
0.0014941692352294922
0.0015079975128173828
0.0014972686767578125
0.0015840530395507812
0.0015716552734375
0.0015845298767089844
0.0015723705291748047
0.0015687942504882812
0.0015759468078613281
0.0015690326690673828
0.001567840576171875
0.00156402587890625
0.0016090869903564453
0.0015418529510498047
0.0014922618865966797
0.0015153884887695312
0.0014896392822265625
0.001481771469116211
0.0015850067138671875
0.0015718936920166016
0.001569509506225586
0.0015881061553955078
0.0015952587127685547
0.0016736984252929688
0.0015349388122558594
0.0014998912811279297
0.0016939640045166016
0.00153350830078125
0.0015444755554199219
0.0018079280853271484
0.0017917156219482422
0.001789093017578125
0.0020928382873535156
0.0018851757049560547
0.0019023418426513672
0.0019915103912353516
0.0018677711486816406
0.0018277168273925781
0.0019183158874511719
0.002097606658935547
0.0020246505737304688
0.002020597457885742
0.0019812583923339844
0.001982450485229492
0.0015468597412109375
0.0015254020690917969
0.001544952392578125
0.0015344619750976562
0.0015132427215576172
0.0015912055969238281
0.0021622180938720703
0.0021491050720214844
0.0021910667419433594
0.002150297164916992
0.0022072792053222656
0.002007722854614258
0.0019483566284179688
0.0020487308502197266
0.001972675323486328
0.0020241737365722656
0.0019457340240478516
0.001939535140991211
0.001979351043701172
0.0019440650939941406
0.001989126205444336
0.0019369125366210938
0.0019381046295166016
0.0019731521606445312
0.0019567012786865234
0.0020363330841064453
0.001987934112548828
0.0019369125366210938
0.0019309520721435547
0.0019540786743164062
0.0019354820251464844
0.0020012855529785156
0.0018742084503173828
0.0017981529235839844
0.0018227100372314453
0.0017726421356201172
0.0018410682678222656
0.0019807815551757812
0.002009868621826172
0.0019519329071044922
0.002010822296142578
0.0020585060119628906
0.0017960071563720703
0.0017631053924560547
0.0017681121826171875
0.0017621517181396484
0.0019762516021728516
0.001932382583618164
0.0019202232360839844
0.0019664764404296875
0.0019164085388183594
0.0019025802612304688
0.001911163330078125
0.0019042491912841797
0.0018956661224365234
0.0018968582153320312
0.0020084381103515625
0.002094268798828125
0.002012491226196289
0.0020318031311035156
0.0019724369049072266
0.0019981861114501953
0.001958608627319336
0.0019469261169433594
0.0019402503967285156
0.0019500255584716797
0.0019464492797851562
0.0019931793212890625
0.0019683837890625
0.0020084381103515625
0.0019698143005371094
0.001954793930053711
0.0020227432250976562
0.001943349838256836
0.001943826675415039
0.0019807815551757812
0.001960277557373047
0.002090930938720703
0.0019829273223876953
0.0019767284393310547
0.001979351043701172
0.0019683837890625
0.0020437240600585938
0.00199127197265625
0.001983642578125
0.0019555091857910156
0.0019457340240478516
0.0019378662109375
0.0019447803497314453
0.0021486282348632812
0.0019567012786865234
0.0019445419311523438
0.0019366741180419922
0.0019822120666503906
0.0019876956939697266
0.002001047134399414
0.0019583702087402344
0.00196075439453125
0.001992940902709961
0.0020203590393066406
0.0019490718841552734
0.001939535140991211
0.0019412040710449219
0.0019404888153076172
0.0019421577453613281
0.0019729137420654297
0.0019447803497314453
0.0019378662109375
0.0019865036010742188
0.0019495487213134766
0.0019419193267822266
0.001940011978149414
0.0019369125366210938
0.0019392967224121094
0.0019414424896240234
0.001936197280883789
0.0020012855529785156
0.001983642578125
0.0020024776458740234
0.0019788742065429688
0.0019447803497314453
0.0019335746765136719
0.0019295215606689453
0.0019304752349853516
0.0019457340240478516
0.0019290447235107422
0.0019316673278808594
0.0019352436065673828
0.001999378204345703
0.002022266387939453
0.0019490718841552734
0.0019376277923583984
0.00196075439453125
0.0019578933715820312
0.0019452571868896484
0.0019421577453613281
0.0019452571868896484
0.0019314289093017578
0.001940011978149414
0.0019507408142089844
0.0019478797912597656
0.001967191696166992
0.0019314289093017578
0.0019464492797851562
0.0019598007202148438
0.0019488334655761719
0.0019414424896240234
0.0019435882568359375
0.0019338130950927734
0.0019354820251464844
0.0019452571868896484
0.0019540786743164062
0.0019516944885253906
0.0019583702087402344
0.0019474029541015625
0.0019371509552001953
0.0019488334655761719
0.001979827880859375
0.0019686222076416016
0.0019423961639404297
0.0019483566284179688
0.001978635787963867
0.002002239227294922
0.001988649368286133
0.001987934112548828
0.0020034313201904297
0.0019538402557373047
0.0019414424896240234
0.0019390583038330078
0.002010822296142578
0.0019991397857666016
0.0019443035125732422
0.0019490718841552734
0.0019469261169433594
0.0019490718841552734
0.001962423324584961
0.0028727054595947266
0.0021810531616210938
0.0018322467803955078
0.0017943382263183594
0.0018248558044433594
0.0018410682678222656
0.0016770362854003906
0.0016760826110839844
0.0016391277313232422
0.0016617774963378906
0.0017626285552978516
0.0020203590393066406
0.0020291805267333984
0.0019567012786865234
0.001961946487426758
0.0022144317626953125
0.0019922256469726562
0.0019268989562988281
0.0019218921661376953
0.001916646957397461
0.0019214153289794922
0.0019221305847167969
0.0019555091857910156
0.0019190311431884766
0.001895904541015625
0.0019462108612060547
0.0019583702087402344
0.0019443035125732422
0.0019497871398925781
0.0019419193267822266
0.0019373893737792969
0.0019443035125732422
0.0019729137420654297
0.0019488334655761719
0.0019762516021728516
0.0019383430480957031
0.001989126205444336
0.0019383430480957031
0.0019459724426269531
0.001977682113647461
0.0019528865814208984
0.0019817352294921875
0.001993417739868164
0.001953601837158203
0.001984119415283203
0.002013683319091797
0.0019512176513671875
0.0019457340240478516
0.0019435882568359375
0.0019369125366210938
0.0019385814666748047
0.0019392967224121094
0.001947641372680664
0.0019388198852539062
0.001962423324584961
0.001961231231689453
0.0022063255310058594
0.0020759105682373047
0.001970052719116211
0.0019593238830566406
0.0019588470458984375
0.001973867416381836
0.0019636154174804688
0.0019550323486328125
0.0019466876983642578
0.0019464492797851562
0.0019519329071044922
0.0019452571868896484
0.002029895782470703
0.001959562301635742
0.0019431114196777344
0.0019419193267822266
0.002008676528930664
0.001955747604370117
0.0019483566284179688
0.0019407272338867188
0.0019462108612060547
0.002006053924560547
0.0020084381103515625
0.0019636154174804688
0.0019750595092773438
0.0019719600677490234
0.0019495487213134766
0.0019807815551757812
0.0019505023956298828
0.0019371509552001953
0.0019295215606689453
0.0019474029541015625
0.0019412040710449219
0.002017498016357422
0.001953601837158203
0.0019757747650146484
0.0019462108612060547
0.001940011978149414
0.0019516944885253906
0.0019397735595703125
0.001941680908203125
0.0019521713256835938
0.001980304718017578
0.0019505023956298828
0.001947164535522461
0.002004861831665039
0.0020427703857421875
0.001979827880859375
0.001959085464477539
0.0019452571868896484
0.0019767284393310547
0.001947641372680664
0.0019497871398925781
0.0019850730895996094
0.0019474029541015625
0.0019457340240478516
0.0019943714141845703
0.0019936561584472656
0.001974821090698242
0.0019488334655761719
0.0019462108612060547
0.001935720443725586
0.0019481182098388672
0.0019404888153076172
0.001947641372680664
0.001947641372680664
0.0019459724426269531
0.001940011978149414
0.0019834041595458984
0.001999378204345703
0.0019512176513671875
0.0019741058349609375
0.0019521713256835938
0.0019388198852539062
0.0019369125366210938
0.001943826675415039
0.001992940902709961
0.0019664764404296875
0.001947164535522461
0.001966238021850586
0.0019588470458984375
0.0019845962524414062
0.0019598007202148438
0.0019409656524658203
0.0019452571868896484
0.0019450187683105469
0.0019435882568359375
0.0019335746765136719
0.0019378662109375
0.0019724369049072266
0.0019752979278564453
0.001980304718017578
0.001960277557373047
0.0019490718841552734
0.0019457340240478516
0.001982450485229492
0.0019474029541015625
0.001939535140991211
0.001941680908203125
0.0019409656524658203
0.0019989013671875
0.0019638538360595703
0.0019750595092773438
0.0019459724426269531
0.001978635787963867
0.0019478797912597656
0.0020356178283691406
0.0019516944885253906
0.0019693374633789062
0.0019674301147460938
0.0019447803497314453
0.0019505023956298828
0.0019478797912597656
0.0019736289978027344
0.0019555091857910156
0.0019724369049072266
0.0019526481628417969
0.001941680908203125
0.0019423961639404297
0.0019464492797851562
0.001943349838256836
0.001986980438232422
0.0019488334655761719
0.0019447803497314453
0.0019452571868896484
0.0019571781158447266
0.001951456069946289
0.0019881725311279297
0.0019497871398925781
0.002035379409790039
0.002000570297241211
0.001956939697265625
0.001962423324584961
0.001963376998901367
0.0019521713256835938
0.0019481182098388672
0.001988649368286133
0.001964092254638672
0.001963376998901367
0.0019481182098388672
0.0019512176513671875
0.0019404888153076172
0.0019469261169433594
0.0019443035125732422
0.0019481182098388672
0.0019533634185791016
0.0019483566284179688
0.001960277557373047
0.001999378204345703
0.0019567012786865234
0.001979827880859375
0.0019490718841552734
0.0019459724426269531
0.0019481182098388672
0.0019526481628417969
0.0019490718841552734
0.0019474029541015625
0.0019807815551757812
0.0019893646240234375
0.0019741058349609375
0.0019636154174804688
0.002013683319091797
0.0019974708557128906
0.001953125
0.0019528865814208984
0.001956939697265625
0.0019884109497070312
0.001954317092895508
0.0019588470458984375
0.0019528865814208984
0.0019469261169433594
0.0019686222076416016
0.001964569091796875
0.001980304718017578
0.00194549560546875
0.001941680908203125
0.0019462108612060547
0.0019447803497314453
0.001955747604370117
0.0019488334655761719
0.0019452571868896484
0.0019474029541015625
0.0019605159759521484
0.002084016799926758
0.002006053924560547
0.0019545555114746094
0.0019481182098388672
0.0019736289978027344
0.002008676528930664
0.0019872188568115234
0.0019936561584472656
0.0019540786743164062
0.001953125
0.0019466876983642578
0.0019876956939697266
0.0020720958709716797
0.0021958351135253906
0.0020051002502441406
0.0019893646240234375
0.0019626617431640625
0.0019927024841308594
0.0019669532775878906
0.0019562244415283203
0.0019488334655761719
0.0019636154174804688
0.001991748809814453
0.001981496810913086
0.0019941329956054688
0.0019779205322265625
0.00199127197265625
0.001984834671020508
0.001950979232788086
0.0019578933715820312
0.001965761184692383
0.0020444393157958984
0.0019674301147460938
0.001975536346435547
0.00205230712890625
0.001986265182495117
0.0020494461059570312
0.0019693374633789062
0.0019736289978027344
0.001971006393432617
0.001959085464477539
0.0019583702087402344
0.0019562244415283203
0.0020134449005126953
0.0019669532775878906
0.002002716064453125
0.002004384994506836
0.002004861831665039
0.001962900161743164
0.0019588470458984375
0.0019989013671875
0.001971006393432617
0.0019712448120117188
0.0019669532775878906
0.002012968063354492
0.001977205276489258
0.001958608627319336
0.0020165443420410156
0.0019614696502685547
0.0019931793212890625
0.001953125
0.001962900161743164
0.0019969940185546875
0.001959562301635742
0.0019545555114746094
0.001967191696166992
0.001959562301635742
0.002167224884033203
0.0020372867584228516
0.001993894577026367
0.002007722854614258
0.001977205276489258
0.0020089149475097656
0.002068042755126953
0.0019829273223876953
0.0019757747650146484
0.0019571781158447266
0.002003192901611328
0.0019922256469726562
0.006826877593994141
0.0020067691802978516
0.0019881725311279297
0.0020110607147216797
0.0016582012176513672
0.0016105175018310547
0.0016553401947021484
0.0016007423400878906
0.0016486644744873047
0.0016028881072998047
0.001505136489868164
0.0014562606811523438
0.0014879703521728516
0.0014715194702148438
0.0015375614166259766
0.0015857219696044922
0.0016067028045654297
0.0015177726745605469
0.00154876708984375
0.0015227794647216797
0.001554727554321289
0.0015134811401367188
0.0015459060668945312
0.0015146732330322266
0.0016164779663085938
0.0015819072723388672
0.0015592575073242188
0.0015323162078857422
0.0015561580657958984
0.0015587806701660156
0.0017006397247314453
0.0016064643859863281
0.001651763916015625
0.001600503921508789
0.001651763916015625
0.0016016960144042969
0.0015273094177246094
0.0015223026275634766
0.0015130043029785156
0.0015070438385009766
0.0015287399291992188
0.0015490055084228516
0.0015723705291748047
0.001528024673461914
0.0015578269958496094
0.0015189647674560547
0.0015616416931152344
0.0015180110931396484
0.0015926361083984375
0.001539468765258789
0.0015926361083984375
0.001543283462524414
0.0015501976013183594
0.0017647743225097656
0.0018482208251953125
0.0016057491302490234
0.0015478134155273438
0.0014867782592773438
0.0015070438385009766
0.0015141963958740234
0.0015368461608886719
0.0015528202056884766
0.0015642642974853516
0.0015270709991455078
0.0015535354614257812
0.0015294551849365234
0.0016908645629882812
0.0017549991607666016
0.001984834671020508
0.0016872882843017578
0.0017044544219970703
0.0016140937805175781
0.0012993812561035156
0.0012373924255371094
0.0012841224670410156
0.0012998580932617188
0.001293182373046875
0.001241922378540039
0.0012853145599365234
0.0012311935424804688
0.0012860298156738281
0.0012316703796386719
0.0013048648834228516
0.001268148422241211
0.0013048648834228516
0.0012822151184082031
0.0012781620025634766
0.0012319087982177734
0.0012798309326171875
0.001237630844116211
0.001279592514038086
0.0012404918670654297
0.0012791156768798828
0.0012295246124267578
0.0012929439544677734
0.0012307167053222656
0.0012736320495605469
0.0012292861938476562
0.0012764930725097656
0.0012290477752685547
0.001308441162109375
0.001238107681274414
0.001275777816772461
0.0012328624725341797
0.0012731552124023438
0.0012292861938476562
0.0013153553009033203
0.0018897056579589844
0.0017731189727783203
0.0015797615051269531
0.001573801040649414
0.0015506744384765625
0.0015463829040527344
0.0015425682067871094
0.0015735626220703125
0.00154876708984375
0.0015292167663574219
0.0015740394592285156
0.0014743804931640625
0.0014641284942626953
0.001451730728149414
0.0014615058898925781
0.0014758110046386719
0.0016405582427978516
0.001603841781616211
0.001695394515991211
0.0016226768493652344
0.0016181468963623047
0.0015223026275634766
0.0015025138854980469
0.0014832019805908203
0.0014591217041015625
0.0014500617980957031
0.001514434814453125
0.0021975040435791016
0.002186298370361328
0.0021886825561523438
0.002185344696044922
0.0022945404052734375
0.0019969940185546875
0.0020072460174560547
0.0019669532775878906
0.0019686222076416016
0.0019845962524414062
0.0020143985748291016
0.001970529556274414
0.0019626617431640625
0.0019676685333251953
0.001999378204345703
0.001968860626220703
0.0020377635955810547
0.0019998550415039062
0.002027750015258789
0.0020072460174560547
0.001970052719116211
0.0019698143005371094
0.0019724369049072266
0.0019621849060058594
0.0020079612731933594
0.002016305923461914
0.001972198486328125
0.001997709274291992
0.001974344253540039
0.0019979476928710938
0.0019655227661132812
0.001969575881958008
0.001962900161743164
0.001962423324584961
0.0019631385803222656
0.002016782760620117
0.001975536346435547
0.00197601318359375
0.001967906951904297
0.002008676528930664
0.0020995140075683594
0.0020804405212402344
0.0019826889038085938
0.001987457275390625
0.0019698143005371094
0.002000093460083008
0.001981019973754883
0.0019714832305908203
0.0019571781158447266
0.0019626617431640625
0.0019845962524414062
0.00199127197265625
0.0019898414611816406
0.0019648075103759766
0.001987457275390625
0.0019638538360595703
0.0019998550415039062
0.0019655227661132812
0.0019583702087402344
0.0019643306732177734
0.001966238021850586
0.002034902572631836
0.002007007598876953
0.0019807815551757812
0.0019822120666503906
0.0019714832305908203
0.002043008804321289
0.001973867416381836
0.0019674301147460938
0.0019791126251220703
0.0020170211791992188
0.0019652843475341797
0.0020127296447753906
0.0020041465759277344
0.0019881725311279297
0.0019996166229248047
0.001959562301635742
0.0019922256469726562
0.0019693374633789062
0.001967906951904297
0.0019655227661132812
0.0019683837890625
0.001977682113647461
0.001966238021850586
0.001997709274291992
0.001990795135498047
0.001980304718017578
0.0019674301147460938
0.001969575881958008
0.0019638538360595703
0.0019702911376953125
0.0020062923431396484
0.001985311508178711
0.0019762516021728516
0.001977682113647461
0.0019674301147460938
0.0019881725311279297
0.0020117759704589844
0.002007007598876953
0.0019600391387939453
0.00201416015625
0.0019752979278564453
0.0020220279693603516
0.0019762516021728516
0.002191781997680664
0.0020215511322021484
0.0020036697387695312
0.0020339488983154297
0.0019876956939697266
0.001996278762817383
0.0019843578338623047
0.0019745826721191406
0.0019719600677490234
0.001992940902709961
0.0019762516021728516
0.001968860626220703
0.002009868621826172
0.001971721649169922
0.0019865036010742188
0.001981019973754883
0.0019915103912353516
0.0020074844360351562
0.001967191696166992
0.0019788742065429688
0.0019719600677490234
0.001972675323486328
0.00196075439453125
0.00196075439453125
0.0019712448120117188
0.0019979476928710938
0.0022017955780029297
0.002003908157348633
0.0020182132720947266
0.001984119415283203
0.001971721649169922
0.0019652843475341797
0.001974344253540039
0.0019702911376953125
0.0019769668579101562
0.0019690990447998047
0.0019714832305908203
0.0022611618041992188
0.0020711421966552734
0.0020606517791748047
0.002023935317993164
0.0020036697387695312
0.001993894577026367
0.001985788345336914
0.002031564712524414
0.0020112991333007812
0.0019905567169189453
0.0019774436950683594
0.0019729137420654297
0.0019731521606445312
0.002002716064453125
0.0020203590393066406
0.001973390579223633
0.0020051002502441406
0.001977682113647461
0.001981019973754883
0.002160310745239258
0.0019979476928710938
0.00197601318359375
0.0019745826721191406
0.0019788742065429688
0.0020055770874023438
0.0020520687103271484
0.002012968063354492
0.002009868621826172
0.0021126270294189453
0.0020372867584228516
0.0021266937255859375
0.0020208358764648438
0.0020208358764648438
0.0020351409912109375
0.0019826889038085938
0.001981496810913086
0.0019783973693847656
0.002006053924560547
0.0019626617431640625
0.002003192901611328
0.002026081085205078
0.001995086669921875
0.001973390579223633
0.0019779205322265625
0.00197601318359375
0.001976490020751953
0.001972198486328125
0.0019826889038085938
0.00201416015625
0.0020117759704589844
0.002083301544189453
0.002027273178100586
0.0020508766174316406
0.0020112991333007812
0.0020165443420410156
0.0019948482513427734
0.0019898414611816406
0.0020122528076171875
0.0019919872283935547
0.0019953250885009766
0.0020096302032470703
0.0019741058349609375
0.0020055770874023438
0.0020275115966796875
0.002000570297241211
0.001994609832763672
0.0020046234130859375
0.0019941329956054688
0.0019948482513427734
0.002017498016357422
0.0020225048065185547
0.001989126205444336
0.002010822296142578
0.001978635787963867
0.0020172595977783203
0.0020227432250976562
0.002004384994506836
0.001981019973754883
0.0019762516021728516
0.001977682113647461
0.0020341873168945312
0.002002716064453125
0.001993894577026367
0.0020210742950439453
0.001993417739868164
0.001979351043701172
0.0019757747650146484
0.0019795894622802734
0.0019686222076416016
0.002009153366088867
0.001992940902709961
0.001990795135498047
0.0020008087158203125
0.0020270347595214844
0.001973867416381836
0.002001047134399414
0.001978635787963867
0.0019741058349609375
0.001968860626220703
0.0019714832305908203
0.0020210742950439453
0.0020296573638916016
0.001984119415283203
0.001981019973754883
0.001989603042602539
0.0020325183868408203
0.002008676528930664
0.001981019973754883
0.0019996166229248047
0.0019674301147460938
0.002051115036010742
0.001996755599975586
0.0020072460174560547
0.0019989013671875
0.001984119415283203
0.0020461082458496094
0.0020208358764648438
0.001989126205444336
0.001997232437133789
0.0019800662994384766
0.0019719600677490234
0.0019834041595458984
0.0019702911376953125
0.001966714859008789
0.0019707679748535156
0.0020122528076171875
0.001989603042602539
0.0019865036010742188
0.002003908157348633
0.0020172595977783203
0.001971006393432617
0.001974344253540039
0.001985311508178711
0.0019750595092773438
0.002010345458984375
0.0020012855529785156
0.0020051002502441406
0.00199127197265625
0.0020208358764648438
0.002008199691772461
0.002160787582397461
0.002066373825073242
0.0019981861114501953
0.0019922256469726562
0.002009868621826172
0.0019884109497070312
0.0019779205322265625
0.00199127197265625
0.0019807815551757812
0.0031404495239257812
0.0022971630096435547
0.0020918846130371094
0.0018067359924316406
0.0017752647399902344
0.0017747879028320312
0.0017316341400146484
0.001737833023071289
0.0020449161529541016
0.002047300338745117
0.0020003318786621094
0.0019941329956054688
0.0019981861114501953
0.0019860267639160156
0.0020287036895751953
0.0019958019256591797
0.001986980438232422
0.001984834671020508
0.0019943714141845703
0.001980304718017578
0.0019845962524414062
0.0020477771759033203
0.0019903182983398438
0.001995086669921875
0.001989126205444336
0.0019865036010742188
0.002055644989013672
0.001985788345336914
0.0020313262939453125
0.001975536346435547
0.001990079879760742
0.0019927024841308594
0.0019872188568115234
0.0020210742950439453
0.0019989013671875
0.001981019973754883
0.002019166946411133
0.0020072460174560547
0.001982450485229492
0.001990795135498047
0.001985311508178711
0.0019867420196533203
0.0019774436950683594
0.0019795894622802734
0.0019943714141845703
0.0019817352294921875
0.001975536346435547
0.002041339874267578
0.0020017623901367188
0.002011537551879883
0.001981496810913086
0.0020706653594970703
0.0020020008087158203
0.0019903182983398438
0.0020210742950439453
0.0019860267639160156
0.001980304718017578
0.0019752979278564453
0.0020024776458740234
0.0020475387573242188
0.002031087875366211
0.0019893646240234375
0.002006053924560547
0.0019910335540771484
0.0021953582763671875
0.00205230712890625
0.0020170211791992188
0.002040863037109375
0.0020046234130859375
0.0019881725311279297
0.002040386199951172
0.0019922256469726562
0.0020227432250976562
0.0019843578338623047
0.0019834041595458984
0.001997232437133789
0.0020334720611572266
0.001993417739868164
0.0019817352294921875
0.0019812583923339844
0.002031564712524414
0.0020630359649658203
0.0020067691802978516
0.002035856246948242
0.0019919872283935547
0.002002716064453125
0.0020034313201904297
0.0019850730895996094
0.001989126205444336
0.0019905567169189453
0.001993894577026367
0.002003908157348633
0.0019915103912353516
0.002018451690673828
0.002016305923461914
0.001996755599975586
0.0019838809967041016
0.001985788345336914
0.0019807815551757812
0.002018451690673828
0.001998424530029297
0.0020301342010498047
0.0019960403442382812
0.0019867420196533203
0.0019991397857666016
0.0019898414611816406
0.002044200897216797
0.001983642578125
0.0019881725311279297
0.001979827880859375
0.002023935317993164
0.0020880699157714844
0.002004861831665039
0.001992940902709961
0.002015352249145508
0.001990795135498047
0.0020787715911865234
0.0020134449005126953
0.0020341873168945312
0.001986980438232422
0.001979827880859375
0.0020194053649902344
0.0019974708557128906
0.001988649368286133
0.0019829273223876953
0.0019838809967041016
0.0020294189453125
0.0020074844360351562
0.002003192901611328
0.002016782760620117
0.0019922256469726562
0.001986265182495117
0.002028226852416992
0.001988649368286133
0.001979827880859375
0.0019943714141845703
0.002004384994506836
0.001994609832763672
0.001985311508178711
0.002062559127807617
0.0020096302032470703
0.002076387405395508
0.0020444393157958984
0.001995086669921875
0.0019943714141845703
0.001987457275390625
0.001990795135498047
0.001985788345336914
0.002000093460083008
0.0019872188568115234
0.001997232437133789
0.0020775794982910156
0.0020394325256347656
0.002005338668823242
0.002000093460083008
0.001991748809814453
0.0019872188568115234
0.001991748809814453
0.002001523971557617
0.0019941329956054688
0.001987457275390625
0.001997709274291992
0.002033233642578125
0.002019643783569336
0.002037525177001953
0.0019834041595458984
0.0019872188568115234
0.001985311508178711
0.0020308494567871094
0.0019829273223876953
0.001993417739868164
0.0020644664764404297
0.002000093460083008
0.0020456314086914062
0.0020112991333007812
0.002016305923461914
0.002241849899291992
0.0020530223846435547
0.0020406246185302734
0.0020449161529541016
0.002016782760620117
0.0020089149475097656
0.0020024776458740234
0.0020046234130859375
0.002010345458984375
0.00201416015625
0.002023458480834961
0.0020492076873779297
0.0019919872283935547
0.002000570297241211
0.0019974708557128906
0.001997709274291992
0.001987934112548828
0.0019927024841308594
0.002012491226196289
0.0020012855529785156
0.0020058155059814453
0.0019996166229248047
0.0020303726196289062
0.0020003318786621094
0.001994609832763672
0.0020842552185058594
0.0019979476928710938
0.0020384788513183594
0.002039670944213867
0.0020003318786621094
0.002033233642578125
0.002016305923461914
0.002012491226196289
0.0020608901977539062
0.002008199691772461
0.0020284652709960938
0.002035379409790039
0.0019965171813964844
0.0020139217376708984
0.0020203590393066406
0.006833791732788086
0.0019943714141845703
0.0020051002502441406
0.0020318031311035156
0.0016503334045410156
0.0015940666198730469
0.001603841781616211
0.0015485286712646484
0.0015866756439208984
0.0015556812286376953
0.0016529560089111328
0.001577615737915039
0.0016167163848876953
0.0015523433685302734
0.0017254352569580078
0.0017049312591552734
0.001725912094116211
0.0016558170318603516
0.0016889572143554688
0.0016434192657470703
0.0015285015106201172
0.001486063003540039
0.0015180110931396484
0.0014977455139160156
0.0015323162078857422
0.0015807151794433594
0.0016033649444580078
0.001598358154296875
0.0016436576843261719
0.0015482902526855469
0.0016088485717773438
0.0015680789947509766
0.0015954971313476562
0.0015575885772705078
0.001699209213256836
0.0017168521881103516
0.0016465187072753906
0.0015931129455566406
0.0016357898712158203
0.0016107559204101562
0.0017085075378417969
0.0016396045684814453
0.0016939640045166016
0.0016655921936035156
0.0016853809356689453
0.0015819072723388672
0.001544952392578125
0.001512765884399414
0.001575469970703125
0.0015015602111816406
0.0015478134155273438
0.0016145706176757812
0.001645803451538086
0.0015823841094970703
0.0016222000122070312
0.0015881061553955078
0.0016279220581054688
0.0015747547149658203
0.00162506103515625
0.0016062259674072266
0.001688241958618164
0.0015964508056640625
0.0016503334045410156
0.0015614032745361328
0.0016007423400878906
0.0015568733215332031
0.0016036033630371094
0.0015783309936523438
0.0016245841979980469
0.0015592575073242188
0.0016107559204101562
0.001566171646118164
0.0016260147094726562
0.0016074180603027344
0.0016787052154541016
0.001628875732421875
0.0016245841979980469
0.0015609264373779297
0.0016047954559326172
0.0015571117401123047
0.0016086101531982422
0.0015635490417480469
0.0016045570373535156
0.0015604496002197266
0.0016303062438964844
0.001630544662475586
0.0017282962799072266
0.0016434192657470703
0.0016944408416748047
0.0016322135925292969
0.0016903877258300781
0.0016481876373291016
0.0015304088592529297
0.0014867782592773438
0.0015180110931396484
0.001522064208984375
0.0016176700592041016
0.0016384124755859375
0.0017993450164794922
0.0016634464263916016
0.0016303062438964844
0.0015861988067626953
0.0016262531280517578
