0.004340648651123047
0.0015552043914794922
0.0015342235565185547
0.0016884803771972656
0.0017771720886230469
0.0018625259399414062
0.0018565654754638672
0.0017518997192382812
0.0013515949249267578
0.0013594627380371094
0.001363515853881836
0.0014488697052001953
0.0013484954833984375
0.001268625259399414
0.0013120174407958984
0.001298666000366211
0.0012903213500976562
0.0013704299926757812
0.001300811767578125
0.0012798309326171875
0.0012934207916259766
0.0013499259948730469
0.0012946128845214844
0.0012891292572021484
0.0013949871063232422
0.0013000965118408203
0.0013439655303955078
0.0012891292572021484
0.001434326171875
0.0013186931610107422
0.0012810230255126953
0.0012731552124023438
0.0013742446899414062
0.0013227462768554688
0.0012972354888916016
0.0013442039489746094
0.0012240409851074219
0.0012056827545166016
0.0011653900146484375
0.0011703968048095703
0.0011970996856689453
0.0011446475982666016
0.001157999038696289
0.0015339851379394531
0.0016427040100097656
0.0015270709991455078
0.001528024673461914
0.0015850067138671875
0.0014483928680419922
0.0013802051544189453
0.0013957023620605469
0.0013785362243652344
0.0014355182647705078
0.0014562606811523438
0.001522064208984375
0.0016312599182128906
0.001628875732421875
0.001626729965209961
0.0018162727355957031
0.001771688461303711
0.0017817020416259766
0.0017695426940917969
0.0016524791717529297
0.0018091201782226562
0.0018589496612548828
0.0019943714141845703
0.0018489360809326172
0.0016982555389404297
0.0012936592102050781
0.0016465187072753906
0.0013959407806396484
0.0013592243194580078
0.0013186931610107422
0.0011723041534423828
0.0011658668518066406
0.0012955665588378906
0.0012922286987304688
0.001188039779663086
0.0011489391326904297
0.0012021064758300781
0.001184701919555664
0.0011475086212158203
0.001150369644165039
0.0011632442474365234
0.0011548995971679688
0.0011432170867919922
0.0011601448059082031
0.0011458396911621094
0.0011320114135742188
0.0011570453643798828
0.0011897087097167969
0.0011725425720214844
0.0011985301971435547
0.0013773441314697266
0.001369476318359375
0.0013844966888427734
0.0015482902526855469
0.0016515254974365234
0.0015215873718261719
0.0014867782592773438
0.001581430435180664
0.0015726089477539062
0.001383066177368164
0.0012409687042236328
0.0016713142395019531
0.0017518997192382812
0.0017414093017578125
0.0017247200012207031
0.0018584728240966797
0.0019948482513427734
0.0019364356994628906
0.0024781227111816406
0.002025604248046875
0.0017974376678466797
0.0016205310821533203
0.0016345977783203125
0.0051784515380859375
0.0013637542724609375
0.001379251480102539
0.0013744831085205078
0.001439809799194336
0.0013391971588134766
0.0016796588897705078
0.0014538764953613281
0.0013680458068847656
0.001497030258178711
0.001440286636352539
0.0016443729400634766
0.0014109611511230469
0.0014934539794921875
0.0014262199401855469
0.0013267993927001953
0.0013339519500732422
0.0013325214385986328
0.0016088485717773438
0.001336812973022461
0.00135040283203125
0.0012288093566894531
0.0013127326965332031
0.0013079643249511719
0.0012385845184326172
0.0012209415435791016
0.0012249946594238281
0.0014026165008544922
0.0013811588287353516
0.0014395713806152344
0.005717277526855469
0.001413106918334961
0.0015873908996582031
0.003437042236328125
0.0017328262329101562
0.004897356033325195
0.0016779899597167969
0.0017635822296142578
0.0013880729675292969
0.0013554096221923828
0.00141143798828125
0.0026199817657470703
0.0015954971313476562
0.0013132095336914062
0.0014450550079345703
0.0013740062713623047
0.0012917518615722656
0.0012969970703125
0.001313924789428711
0.0012814998626708984
0.0013077259063720703
0.00141143798828125
0.0013594627380371094
0.0021872520446777344
0.0015392303466796875
0.0015645027160644531
0.001443624496459961
0.0014760494232177734
0.0014636516571044922
0.0014524459838867188
0.0017156600952148438
0.0015957355499267578
0.0015163421630859375
0.001420736312866211
0.001676321029663086
0.0031609535217285156
0.0020143985748291016
0.0018451213836669922
0.0016269683837890625
0.0016703605651855469
0.001789093017578125
0.0016286373138427734
0.0017023086547851562
0.0018610954284667969
0.0017886161804199219
0.0017085075378417969
0.0017063617706298828
0.0019371509552001953
0.0017902851104736328
0.0017688274383544922
0.0026023387908935547
0.0018587112426757812
0.0018413066864013672
0.0028400421142578125
0.002064228057861328
0.002702951431274414
0.002281665802001953
0.002230405807495117
0.0019829273223876953
0.001943349838256836
0.0019261837005615234
0.001893758773803711
0.0020248889923095703
0.002141237258911133
0.0022575855255126953
0.0022482872009277344
0.0020742416381835938
0.002050638198852539
0.0021333694458007812
0.002076387405395508
0.002017498016357422
0.002122163772583008
0.0020928382873535156
0.0022156238555908203
0.0023355484008789062
0.0023107528686523438
0.002452850341796875
0.002336263656616211
0.002124309539794922
0.0021278858184814453
0.0020742416381835938
0.0022008419036865234
0.002156972885131836
0.0021550655364990234
0.0021209716796875
0.0020754337310791016
0.002202272415161133
0.0022270679473876953
0.0021886825561523438
0.0021271705627441406
0.0021572113037109375
0.002008676528930664
0.002176046371459961
0.0021009445190429688
0.0021419525146484375
0.002065896987915039
0.0022153854370117188
0.0022110939025878906
0.0023431777954101562
0.002328634262084961
0.0021834373474121094
0.002240419387817383
0.0021355152130126953
0.0020384788513183594
0.0018579959869384766
0.0019154548645019531
0.001924753189086914
0.001943349838256836
0.002010345458984375
0.002100706100463867
0.00217437744140625
0.002084493637084961
0.0019979476928710938
0.002045154571533203
0.0019524097442626953
0.0019147396087646484
0.00200653076171875
0.002033710479736328
0.0019881725311279297
0.0021462440490722656
0.0019805431365966797
0.0023648738861083984
0.002931356430053711
0.002613544464111328
0.0023546218872070312
0.0023233890533447266
0.002119302749633789
0.0019712448120117188
0.0028944015502929688
0.0018641948699951172
0.001491546630859375
0.002091646194458008
0.001951456069946289
0.0017549991607666016
0.001689910888671875
0.0022339820861816406
0.0028951168060302734
0.0020864009857177734
0.001710653305053711
0.0016760826110839844
0.0019774436950683594
0.0018928050994873047
0.002050638198852539
0.0018341541290283203
0.0017766952514648438
0.002202749252319336
0.0014910697937011719
0.002242565155029297
0.0015802383422851562
0.0019719600677490234
0.002149820327758789
0.0018951892852783203
0.0015268325805664062
0.0018341541290283203
0.0021326541900634766
0.0015037059783935547
0.001680612564086914
0.0017554759979248047
0.001600027084350586
0.0019838809967041016
0.0014634132385253906
0.0017278194427490234
0.0017311573028564453
0.002046823501586914
0.002328157424926758
0.0023131370544433594
0.002038240432739258
0.002137422561645508
0.002100229263305664
0.0020036697387695312
0.0020623207092285156
0.0022869110107421875
0.002149820327758789
0.002155303955078125
0.0019519329071044922
0.002192974090576172
0.001965761184692383
0.0016062259674072266
0.0020830631256103516
0.0019316673278808594
0.0016069412231445312
0.00164031982421875
0.001558542251586914
0.0014836788177490234
0.0015218257904052734
0.0016062259674072266
0.0014722347259521484
0.0016031265258789062
0.001621246337890625
0.0014777183532714844
0.00174713134765625
0.0017838478088378906
0.0014996528625488281
0.0016636848449707031
0.0015587806701660156
0.0016798973083496094
0.001590728759765625
0.0015437602996826172
0.001827239990234375
0.0018711090087890625
0.002171754837036133
0.0018427371978759766
0.0020601749420166016
0.0017154216766357422
0.001837015151977539
0.0019681453704833984
0.001668691635131836
0.0018429756164550781
0.0016977787017822266
0.0017066001892089844
0.0017139911651611328
0.0016472339630126953
0.00153350830078125
0.0016667842864990234
0.0019605159759521484
0.001577138900756836
0.0015621185302734375
0.0015206336975097656
0.0016422271728515625
0.0014851093292236328
0.002629518508911133
0.0019328594207763672
0.001528024673461914
0.0017423629760742188
0.0017294883728027344
0.0016925334930419922
0.003966331481933594
0.001611948013305664
0.0015277862548828125
0.0013575553894042969
0.0020287036895751953
0.0015594959259033203
0.002593994140625
0.0015299320220947266
0.0014376640319824219
0.0014345645904541016
0.0019669532775878906
0.0016460418701171875
0.003070354461669922
0.001560211181640625
0.0016567707061767578
0.0015232563018798828
0.0019176006317138672
0.001573324203491211
0.0015921592712402344
0.0015330314636230469
0.0015718936920166016
0.0015883445739746094
0.0018706321716308594
0.0018813610076904297
0.0015439987182617188
0.002954721450805664
0.0016460418701171875
0.0020093917846679688
0.002240896224975586
0.0014586448669433594
0.0018157958984375
0.001926422119140625
0.0018215179443359375
0.0019443035125732422
0.0018093585968017578
0.001781463623046875
0.001963376998901367
0.0015652179718017578
0.0015628337860107422
0.0017478466033935547
0.0015599727630615234
0.0017251968383789062
0.0016932487487792969
0.0019817352294921875
0.00164794921875
0.0017104148864746094
0.0015227794647216797
0.0014519691467285156
0.0014414787292480469
0.0018706321716308594
0.0014519691467285156
0.0014781951904296875
0.0014188289642333984
0.001444101333618164
0.0012943744659423828
0.001245260238647461
0.001356363296508789
0.0014445781707763672
0.0012440681457519531
0.0012214183807373047
0.0012862682342529297
0.001216888427734375
0.0012187957763671875
0.0013709068298339844
0.0012362003326416016
0.0014009475708007812
0.0013360977172851562
0.0013432502746582031
0.0013802051544189453
0.0014050006866455078
0.0012409687042236328
0.0012004375457763672
0.0011982917785644531
0.0012106895446777344
0.0012214183807373047
0.0011916160583496094
0.0011851787567138672
0.0011794567108154297
0.0011780261993408203
0.0015075206756591797
0.0014500617980957031
0.001455068588256836
0.0014522075653076172
0.0014455318450927734
0.0016300678253173828
0.0016179084777832031
0.0016083717346191406
0.0016105175018310547
0.0016086101531982422
0.0016918182373046875
0.0015180110931396484
0.0015320777893066406
0.0015065670013427734
0.0014629364013671875
0.001522064208984375
0.0015642642974853516
0.0015401840209960938
0.0015294551849365234
0.0015323162078857422
0.0016007423400878906
0.00145721435546875
0.0014922618865966797
0.0014808177947998047
0.001443624496459961
0.00398707389831543
0.001756906509399414
0.0015854835510253906
0.0015556812286376953
0.0015494823455810547
0.0016345977783203125
0.0014884471893310547
0.0014672279357910156
0.0015442371368408203
0.0014770030975341797
0.001451730728149414
0.0014541149139404297
0.0014495849609375
0.0015728473663330078
0.0017886161804199219
0.0019009113311767578
0.0018825531005859375
0.001752614974975586
0.0015797615051269531
0.0015790462493896484
0.0015807151794433594
0.0016126632690429688
0.001539468765258789
0.0015370845794677734
0.00153350830078125
0.001531839370727539
0.0015850067138671875
0.0014667510986328125
0.0014505386352539062
0.0014629364013671875
0.0014722347259521484
0.0015025138854980469
0.0014729499816894531
0.0014524459838867188
0.0014483928680419922
0.0014493465423583984
0.0015201568603515625
0.0015385150909423828
0.0015392303466796875
0.0015308856964111328
0.0018014907836914062
0.0022766590118408203
0.001874685287475586
0.0018181800842285156
0.001882791519165039
0.0017857551574707031
0.002001523971557617
0.001485586166381836
0.001463174819946289
0.0014979839324951172
0.0017099380493164062
0.0014231204986572266
0.001253366470336914
0.0012402534484863281
0.0012249946594238281
0.0012307167053222656
0.0013515949249267578
0.0014204978942871094
0.0012116432189941406
0.001233816146850586
0.001218557357788086
0.0012083053588867188
0.0011913776397705078
0.001314401626586914
0.0014035701751708984
0.0015239715576171875
0.0014145374298095703
0.0012667179107666016
0.0011973381042480469
0.001224517822265625
0.0011899471282958984
0.0012426376342773438
0.0011856555938720703
0.001184701919555664
0.0011730194091796875
0.001176595687866211
0.0011701583862304688
0.001173257827758789
0.001186370849609375
0.0011706352233886719
0.001168966293334961
0.0011892318725585938
0.0011904239654541016
0.0018877983093261719
0.001873016357421875
0.0018668174743652344
0.0018661022186279297
0.0018672943115234375
0.0019207000732421875
0.0018758773803710938
0.0018894672393798828
0.0018715858459472656
0.0019404888153076172
0.0018837451934814453
0.0018668174743652344
0.0018689632415771484
0.0018665790557861328
0.0018672943115234375
0.0018696784973144531
0.0019085407257080078
0.0018770694732666016
0.0018851757049560547
0.0018687248229980469
0.0018978118896484375
0.0018620491027832031
0.0018582344055175781
0.0018620491027832031
0.001857757568359375
0.00186920166015625
0.0018825531005859375
0.001870870590209961
0.0019037723541259766
0.0018749237060546875
0.0018727779388427734
0.001865386962890625
0.0018663406372070312
0.0019099712371826172
0.0018701553344726562
0.0018973350524902344
0.0018887519836425781
0.0018773078918457031
0.0019116401672363281
0.0018928050994873047
0.00188446044921875
0.0018999576568603516
0.0018703937530517578
0.001861572265625
0.0018720626831054688
0.0018644332885742188
0.0018723011016845703
0.0018575191497802734
0.0018608570098876953
0.0018591880798339844
0.0018687248229980469
0.0019042491912841797
0.001874685287475586
0.0018596649169921875
0.0018589496612548828
0.0018591880798339844
0.0018630027770996094
0.0018584728240966797
0.0018668174743652344
0.0018565654754638672
0.0018665790557861328
0.001895904541015625
0.001886606216430664
0.0018608570098876953
0.001882791519165039
0.0018587112426757812
0.0018601417541503906
0.001882791519165039
0.001867532730102539
0.001861572265625
0.0018646717071533203
0.0018613338470458984
0.0018687248229980469
0.0018913745880126953
0.0018765926361083984
0.0018627643585205078
0.0018811225891113281
0.0018672943115234375
0.0018627643585205078
0.0018563270568847656
0.001863718032836914
0.001857757568359375
0.001875162124633789
0.0018644332885742188
0.001863718032836914
0.0018804073333740234
0.0018985271453857422
0.0018978118896484375
0.0018684864044189453
0.0018589496612548828
0.001905202865600586
0.001863718032836914
0.00189971923828125
0.0018613338470458984
0.0018627643585205078
0.001875162124633789
0.0018756389617919922
0.0019123554229736328
0.0018932819366455078
0.0018658638000488281
0.001865386962890625
0.0018608570098876953
0.0019085407257080078
0.0018565654754638672
0.0018639564514160156
0.0018603801727294922
0.0018582344055175781
0.0018782615661621094
0.0018897056579589844
0.0018644332885742188
0.0019183158874511719
0.0018663406372070312
0.0018694400787353516
0.0018854141235351562
0.0019221305847167969
0.0018703937530517578
0.0018630027770996094
0.0018582344055175781
0.0018792152404785156
0.0019690990447998047
0.0018887519836425781
0.0019135475158691406
0.0018758773803710938
0.0018761157989501953
0.0018758773803710938
0.0018651485443115234
0.0018758773803710938
0.0019068717956542969
0.001890420913696289
0.0018699169158935547
0.0018727779388427734
0.00188446044921875
0.00188446044921875
0.0019719600677490234
0.0018720626831054688
0.0018661022186279297
0.0019042491912841797
0.0018744468688964844
0.001867532730102539
0.0018765926361083984
0.0018777847290039062
0.0018661022186279297
0.0019092559814453125
0.0018765926361083984
0.0019032955169677734
0.0018663406372070312
0.0018649101257324219
0.0018699169158935547
0.0018649101257324219
0.001871347427368164
0.001865386962890625
0.0018641948699951172
0.0018568038940429688
0.0018630027770996094
0.0019125938415527344
0.0018835067749023438
0.0018734931945800781
0.0018825531005859375
0.0018765926361083984
0.0019423961639404297
0.0018749237060546875
0.0018644332885742188
0.001871347427368164
0.0018634796142578125
0.0018930435180664062
0.0018761157989501953
0.0018680095672607422
0.0020453929901123047
0.0019338130950927734
0.002084970474243164
0.0019369125366210938
0.0018918514251708984
0.0018987655639648438
0.0018782615661621094
0.0019516944885253906
0.0018930435180664062
0.0020084381103515625
0.0019271373748779297
0.0019769668579101562
0.0019011497497558594
0.0019021034240722656
0.0018794536590576172
0.0018804073333740234
0.0018985271453857422
0.0020568370819091797
0.0019195079803466797
0.0019237995147705078
0.0019404888153076172
0.0019338130950927734
0.0018935203552246094
0.0019412040710449219
0.0019032955169677734
0.0018870830535888672
0.0018911361694335938
0.0019342899322509766
0.001895904541015625
0.001886129379272461
0.0018723011016845703
0.0018761157989501953
0.0018770694732666016
0.001916646957397461
0.0018892288208007812
0.0019350051879882812
0.0018863677978515625
0.001882314682006836
0.0018780231475830078
0.0018970966339111328
0.0018987655639648438
0.001875162124633789
0.0018820762634277344
0.0018947124481201172
0.001954793930053711
0.0019061565399169922
0.0019021034240722656
0.0018727779388427734
0.0019278526306152344
0.0018775463104248047
0.0018923282623291016
0.0018799304962158203
0.0018734931945800781
0.0018808841705322266
0.0018849372863769531
0.0018768310546875
0.001909017562866211
0.00189208984375
0.0018680095672607422
0.001895904541015625
0.0018787384033203125
0.0018725395202636719
0.0018737316131591797
0.0018715858459472656
0.001874685287475586
0.0018749237060546875
0.0018677711486816406
0.0018985271453857422
0.0018954277038574219
0.0019383430480957031
0.0018770694732666016
0.0018749237060546875
0.0018672943115234375
0.001875162124633789
0.001901865005493164
0.001875162124633789
0.001878976821899414
0.0018796920776367188
0.0018734931945800781
0.0019512176513671875
0.001909017562866211
0.0018830299377441406
0.0018706321716308594
0.001878976821899414
0.0019071102142333984
0.0018815994262695312
0.0018680095672607422
0.0018734931945800781
0.0018656253814697266
0.0018742084503173828
0.0019021034240722656
0.0019047260284423828
0.001897573471069336
0.0018763542175292969
0.0018684864044189453
0.0018863677978515625
0.0018732547760009766
0.0018773078918457031
0.0018758773803710938
0.0018718242645263672
0.0018725395202636719
0.0018973350524902344
0.0018761157989501953
0.0018804073333740234
0.0018727779388427734
0.0018758773803710938
0.001867055892944336
0.0018808841705322266
0.0019021034240722656
0.001897573471069336
0.0019443035125732422
0.0020074844360351562
0.0018911361694335938
0.001901865005493164
0.00188446044921875
0.0019130706787109375
0.001886606216430664
0.0018770694732666016
0.0018765926361083984
0.0019040107727050781
0.0018787384033203125
0.0018954277038574219
0.0028951168060302734
0.0022950172424316406
0.002170085906982422
0.0019626617431640625
0.002087831497192383
0.0017910003662109375
0.0017676353454589844
0.0017790794372558594
0.0017499923706054688
0.0017685890197753906
0.001917123794555664
0.0019061565399169922
0.0018973350524902344
0.0018928050994873047
0.0019104480743408203
0.0018963813781738281
0.0018932819366455078
0.0018897056579589844
0.0019397735595703125
0.001895904541015625
0.0018916130065917969
0.0019023418426513672
0.001882791519165039
0.001918792724609375
0.0018846988677978516
0.001905202865600586
0.0018887519836425781
0.0019164085388183594
0.0018825531005859375
0.0018889904022216797
0.0019137859344482422
0.0018820762634277344
0.0018765926361083984
0.001924753189086914
0.0018837451934814453
0.0018770694732666016
0.0018901824951171875
0.00189971923828125
0.0018815994262695312
0.001909017562866211
0.001880645751953125
0.0018949508666992188
0.0018727779388427734
0.0018825531005859375
0.0018758773803710938
0.0018787384033203125
0.0018818378448486328
0.0018963813781738281
0.0019350051879882812
0.0018923282623291016
0.001913309097290039
0.0018839836120605469
0.0018739700317382812
0.0018815994262695312
0.0018794536590576172
0.0018830299377441406
0.0019297599792480469
0.0018887519836425781
0.0018923282623291016
0.0019409656524658203
0.0019168853759765625
0.0019474029541015625
0.0019102096557617188
0.001954317092895508
0.0018990039825439453
0.0019021034240722656
0.0018992424011230469
0.0018956661224365234
0.001882314682006836
0.0018839836120605469
0.001882791519165039
0.001882314682006836
0.0018923282623291016
0.0019109249114990234
0.001878499984741211
0.0018792152404785156
0.0018782615661621094
0.0018851757049560547
0.001924276351928711
0.0018923282623291016
0.00189208984375
0.0018868446350097656
0.0019268989562988281
0.0019049644470214844
0.0018990039825439453
0.0018863677978515625
0.0018777847290039062
0.0018894672393798828
0.0018830299377441406
0.0018794536590576172
0.0018782615661621094
0.0018813610076904297
0.0018804073333740234
0.0018873214721679688
0.0018880367279052734
0.0018842220306396484
0.0019073486328125
0.0018951892852783203
0.0019135475158691406
0.00188446044921875
0.0018799304962158203
0.0018754005432128906
0.001871347427368164
0.001880645751953125
0.0018777847290039062
0.0018763542175292969
0.0019047260284423828
0.0018813610076904297
0.0019083023071289062
0.001895904541015625
0.0018880367279052734
0.0018799304962158203
0.0018820762634277344
0.0018994808197021484
0.0018897056579589844
0.0018777847290039062
0.0018908977508544922
0.0018923282623291016
0.0018818378448486328
0.001916646957397461
0.0018811225891113281
0.0019032955169677734
0.0018782615661621094
0.0018775463104248047
0.0020248889923095703
0.001909017562866211
0.0018801689147949219
0.0018811225891113281
0.0018885135650634766
0.0019154548645019531
0.0019023418426513672
0.0018842220306396484
0.0018799304962158203
0.0018770694732666016
0.0019168853759765625
0.0019044876098632812
0.001886606216430664
0.0018889904022216797
0.0020449161529541016
0.0018887519836425781
0.0019073486328125
0.0019073486328125
0.0019109249114990234
0.0018892288208007812
0.001909017562866211
0.0020945072174072266
0.0019435882568359375
0.0019314289093017578
0.0019061565399169922
0.0018923282623291016
0.0018985271453857422
0.0019049644470214844
0.0018987655639648438
0.0018966197967529297
0.0018835067749023438
0.001893758773803711
0.0018930435180664062
0.0018856525421142578
0.001878976821899414
0.001878499984741211
0.0019257068634033203
0.0018925666809082031
0.0018870830535888672
0.0019009113311767578
0.0018970966339111328
0.002002239227294922
0.0018851757049560547
0.0018897056579589844
0.0021326541900634766
0.0019142627716064453
0.0018887519836425781
0.0018968582153320312
0.0018837451934814453
0.0019028186798095703
0.0019130706787109375
0.001941680908203125
0.0019106864929199219
0.0019032955169677734
0.0018923282623291016
0.0018949508666992188
0.0018949508666992188
0.0019028186798095703
0.0018894672393798828
0.001890420913696289
0.0018875598907470703
0.0018846988677978516
0.0015635490417480469
0.0015673637390136719
0.0015685558319091797
0.0015413761138916016
0.0015368461608886719
0.0014812946319580078
0.001466989517211914
0.001466512680053711
0.0014605522155761719
0.0014629364013671875
0.0016429424285888672
0.0016481876373291016
0.001668691635131836
0.0017056465148925781
0.001630544662475586
0.001672983169555664
0.0014677047729492188
0.0014691352844238281
0.001463174819946289
0.0014619827270507812
0.001528024673461914
0.0015518665313720703
0.0015368461608886719
0.0015370845794677734
0.0015473365783691406
0.0015833377838134766
0.0014734268188476562
0.0016050338745117188
0.0014901161193847656
0.0014743804931640625
0.001470327377319336
0.0014863014221191406
0.001522064208984375
0.0014774799346923828
0.0014646053314208984
0.0014827251434326172
0.0015718936920166016
0.001537322998046875
0.0015327930450439453
0.0015604496002197266
0.0015411376953125
0.0016031265258789062
0.0014705657958984375
0.0015151500701904297
0.0014734268188476562
0.0014660358428955078
0.0015377998352050781
0.0015530586242675781
0.0015687942504882812
0.0015349388122558594
0.001529693603515625
0.0015556812286376953
0.0015254020690917969
0.0014789104461669922
0.001466989517211914
0.0014641284942626953
0.0014643669128417969
0.0014681816101074219
0.0014827251434326172
0.0014758110046386719
0.0014619827270507812
0.0014774799346923828
0.0015490055084228516
0.0015399456024169922
0.0015320777893066406
0.0016133785247802734
0.0016644001007080078
0.001649618148803711
0.0015032291412353516
0.0014789104461669922
0.001478433609008789
0.0014808177947998047
0.0015311241149902344
0.001584768295288086
0.0015461444854736328
0.0015625953674316406
0.00157928466796875
0.0015463829040527344
0.0014927387237548828
0.0014681816101074219
0.00146484375
0.0014731884002685547
0.0014653205871582031
0.0014946460723876953
0.0014851093292236328
0.0014679431915283203
0.0014846324920654297
0.0014810562133789062
0.0015680789947509766
0.0015566349029541016
0.0015530586242675781
0.0015599727630615234
0.0015411376953125
0.0016245841979980469
0.0015130043029785156
0.0014677047729492188
0.00146484375
0.0014634132385253906
0.0015494823455810547
0.0015764236450195312
0.001550436019897461
0.0015540122985839844
0.0015411376953125
0.001672983169555664
0.001539468765258789
0.0015039443969726562
0.0014734268188476562
0.0014727115631103516
0.0014638900756835938
0.0015592575073242188
0.0015411376953125
0.0015544891357421875
0.0015377998352050781
0.0015423297882080078
0.001477956771850586
0.001463174819946289
0.0014681816101074219
0.0016086101531982422
0.0014810562133789062
0.001535654067993164
0.0017917156219482422
0.001508474349975586
0.0014941692352294922
0.0015385150909423828
0.0015687942504882812
0.0015649795532226562
0.0015978813171386719
0.001596689224243164
0.0015952587127685547
0.001634836196899414
0.0021431446075439453
0.002097606658935547
0.0020906925201416016
0.002143383026123047
0.002145528793334961
0.0019288063049316406
0.0019021034240722656
0.0018966197967529297
0.0019326210021972656
0.0020599365234375
0.0019605159759521484
0.001922607421875
0.0018982887268066406
0.0018951892852783203
0.0018873214721679688
0.0018911361694335938
0.001890420913696289
0.001901388168334961
0.0018954277038574219
0.001918792724609375
0.0018973350524902344
0.0019261837005615234
0.0018928050994873047
0.0019190311431884766
0.0018961429595947266
0.0018992424011230469
0.0018963813781738281
0.001886606216430664
0.0018908977508544922
0.0018894672393798828
0.0019180774688720703
0.0019288063049316406
0.0019047260284423828
0.0019314289093017578
0.0018908977508544922
0.0019021034240722656
0.0018901824951171875
0.0018849372863769531
0.0018913745880126953
0.001886606216430664
0.001924276351928711
0.0018887519836425781
0.0019371509552001953
0.0019102096557617188
0.0019261837005615234
0.0018854141235351562
0.001897573471069336
0.0018906593322753906
0.0018925666809082031
0.001889944076538086
0.0018856525421142578
0.0018908977508544922
0.0018875598907470703
0.0019197463989257812
0.0018961429595947266
0.00189971923828125
0.0018842220306396484
0.003968477249145508
0.002042055130004883
0.001783132553100586
0.0017817020416259766
0.0020225048065185547
0.0019478797912597656
0.0020101070404052734
0.0019237995147705078
0.0019352436065673828
0.0019109249114990234
0.001940011978149414
0.0019032955169677734
0.0019159317016601562
0.001903533935546875
0.0019066333770751953
0.0019118785858154297
0.0019054412841796875
0.0019049644470214844
0.001903533935546875
0.0019044876098632812
0.001901388168334961
0.0019500255584716797
0.0019030570983886719
0.0021076202392578125
0.0019669532775878906
0.0019571781158447266
0.0019075870513916016
0.0019042491912841797
0.0018951892852783203
0.0018994808197021484
0.0019350051879882812
0.0019176006317138672
0.0019092559814453125
0.0019137859344482422
0.001898050308227539
0.0019156932830810547
0.0019390583038330078
0.0019073486328125
0.0019032955169677734
0.0019006729125976562
0.0019028186798095703
0.001897573471069336
0.001924276351928711
0.0019071102142333984
0.0019197463989257812
0.0018968582153320312
0.0019054412841796875
0.001898050308227539
0.0018961429595947266
0.001898050308227539
0.0018982887268066406
0.0019199848175048828
0.002691984176635742
0.0025098323822021484
0.0024785995483398438
0.002615690231323242
0.0026290416717529297
0.002052783966064453
0.0016524791717529297
0.0015716552734375
0.0019123554229736328
0.0018525123596191406
0.0019330978393554688
0.0017900466918945312
0.0019068717956542969
0.0017766952514648438
0.001794576644897461
0.0019712448120117188
0.0019218921661376953
0.0019152164459228516
0.0019130706787109375
0.0019116401672363281
0.0019152164459228516
0.001905679702758789
0.0019214153289794922
0.001905202865600586
0.0019016265869140625
0.0019431114196777344
0.0019261837005615234
0.0019245147705078125
0.0018949508666992188
0.0018994808197021484
0.0019049644470214844
0.0019016265869140625
0.0018951892852783203
0.0019016265869140625
0.0018994808197021484
0.0019297599792480469
0.0019063949584960938
0.0019011497497558594
0.0019145011901855469
0.0018956661224365234
0.0018947124481201172
0.0019125938415527344
0.0018963813781738281
0.0018970966339111328
0.0019125938415527344
0.0019006729125976562
0.0019047260284423828
0.0019009113311767578
0.0019168853759765625
0.002217531204223633
0.002205371856689453
0.0019872188568115234
0.0019745826721191406
0.0019617080688476562
0.0019307136535644531
0.0019342899322509766
0.0019185543060302734
0.001928567886352539
0.0019168853759765625
0.0019273757934570312
0.0019104480743408203
0.0019521713256835938
0.0019199848175048828
0.0019042491912841797
0.0019118785858154297
0.0019059181213378906
0.0019125938415527344
0.001973390579223633
0.001920938491821289
0.001909017562866211
0.0019071102142333984
0.0019838809967041016
0.0019295215606689453
0.0019180774688720703
0.0019333362579345703
0.0019049644470214844
0.0019466876983642578
0.0019097328186035156
0.001905202865600586
0.0018932819366455078
0.0018970966339111328
0.0018968582153320312
0.0019199848175048828
0.0019078254699707031
0.0019116401672363281
0.0019030570983886719
0.0018951892852783203
0.0019121170043945312
0.0018990039825439453
0.0019016265869140625
0.0019037723541259766
0.001901388168334961
0.0019371509552001953
0.0018994808197021484
0.0019350051879882812
0.0018985271453857422
0.0018949508666992188
0.0019283294677734375
0.0018970966339111328
0.0018963813781738281
0.0019054412841796875
0.0019023418426513672
0.0019326210021972656
0.0019354820251464844
0.0019507408142089844
0.0019335746765136719
0.0019099712371826172
0.001918792724609375
0.001905679702758789
0.001926422119140625
0.0018992424011230469
0.0019009113311767578
0.001905202865600586
0.0019066333770751953
0.001903533935546875
0.0018999576568603516
0.0019516944885253906
0.0022687911987304688
0.002125978469848633
0.0019464492797851562
0.0019245147705078125
0.001911163330078125
0.0019283294677734375
0.0019443035125732422
0.0019009113311767578
0.0018994808197021484
0.001901388168334961
0.0018970966339111328
0.0019652843475341797
0.0019121170043945312
0.001922607421875
0.0019860267639160156
0.0019314289093017578
0.0019006729125976562
0.0019369125366210938
0.0019066333770751953
0.001901388168334961
0.001901388168334961
0.0018992424011230469
0.0019102096557617188
0.0019078254699707031
0.0019466876983642578
0.001903533935546875
0.0019168853759765625
0.0019164085388183594
0.0019021034240722656
0.0019030570983886719
0.0019006729125976562
0.0019001960754394531
0.001905202865600586
0.0019009113311767578
0.0019145011901855469
0.0019006729125976562
0.0019237995147705078
0.0019061565399169922
0.0018970966339111328
0.0019419193267822266
0.0019104480743408203
0.0019080638885498047
0.0019447803497314453
0.0019047260284423828
0.0019059181213378906
0.0019221305847167969
0.0019061565399169922
0.0019600391387939453
0.0019054412841796875
0.0019047260284423828
0.0019118785858154297
0.0019292831420898438
0.0019164085388183594
0.0019109249114990234
0.0019125938415527344
0.0019211769104003906
0.0019073486328125
0.001918792724609375
0.001947641372680664
0.0019295215606689453
0.001905679702758789
0.0019032955169677734
0.0019032955169677734
0.0019345283508300781
0.0019006729125976562
0.0019006729125976562
0.0019004344940185547
0.001901865005493164
0.0019431114196777344
0.001913309097290039
0.0019257068634033203
0.0018961429595947266
0.00189971923828125
0.0019004344940185547
0.0019271373748779297
0.0019011497497558594
0.0019037723541259766
0.0019211769104003906
0.0019059181213378906
0.0019044876098632812
0.001928091049194336
0.0020105838775634766
0.002046346664428711
0.0019371509552001953
0.0019266605377197266
0.0019159317016601562
0.001901865005493164
0.001974344253540039
0.0019135475158691406
0.0019092559814453125
0.001901388168334961
0.0020334720611572266
0.0019404888153076172
0.001962900161743164
0.0019197463989257812
0.001918792724609375
0.0019178390502929688
0.0019049644470214844
0.0019099712371826172
0.0019140243530273438
0.0019257068634033203
0.0019140243530273438
0.0019342899322509766
0.0019762516021728516
0.0021905899047851562
0.002015352249145508
0.001957416534423828
0.001971006393432617
0.0019283294677734375
0.0019659996032714844
0.0019199848175048828
0.0019121170043945312
0.0019066333770751953
0.002202749252319336
0.002124309539794922
0.001985788345336914
0.0019693374633789062
0.0019335746765136719
0.0019221305847167969
0.0019352436065673828
0.0019295215606689453
0.0019259452819824219
0.00191497802734375
0.0019176006317138672
0.0019207000732421875
0.0019235610961914062
0.0019435882568359375
0.00193023681640625
0.001932382583618164
0.001905202865600586
0.0019190311431884766
0.0019083023071289062
0.0019078254699707031
0.0019147396087646484
0.0019130706787109375
0.0019195079803466797
0.0019059181213378906
0.001977205276489258
0.001998424530029297
0.0019745826721191406
0.0019526481628417969
0.0019207000732421875
0.0019059181213378906
0.0022668838500976562
0.0019538402557373047
0.001939535140991211
0.0019369125366210938
0.0019216537475585938
0.002249002456665039
0.001972198486328125
0.00194549560546875
0.0019381046295166016
0.0019211769104003906
0.001912832260131836
0.001935720443725586
0.0019559860229492188
0.0019199848175048828
0.0019164085388183594
0.0019123554229736328
0.0019106864929199219
0.001943826675415039
0.0019335746765136719
0.0019233226776123047
0.001956939697265625
0.0019249916076660156
0.0019216537475585938
0.001949310302734375
0.0019295215606689453
0.0019192695617675781
0.0019104480743408203
0.0019097328186035156
0.0019078254699707031
0.0019545555114746094
0.0019299983978271484
0.0019125938415527344
0.0019083023071289062
0.0019054412841796875
0.0019192695617675781
0.0019114017486572266
0.001917123794555664
0.0019109249114990234
0.001912832260131836
0.001917123794555664
0.0019347667694091797
0.0019180774688720703
0.0019316673278808594
0.0019121170043945312
0.001957416534423828
0.001974821090698242
0.0019347667694091797
0.001943826675415039
0.0019402503967285156
0.001959562301635742
0.0019235610961914062
0.0019817352294921875
0.001949310302734375
0.0019369125366210938
0.0019290447235107422
0.0019271373748779297
0.0019218921661376953
0.0019118785858154297
0.0019178390502929688
0.0019197463989257812
0.0019216537475585938
0.002214193344116211
0.002117633819580078
0.0018341541290283203
0.0018157958984375
0.0020704269409179688
0.0019719600677490234
0.0019335746765136719
0.001963376998901367
0.001931905746459961
0.0019795894622802734
0.0019378662109375
0.0019369125366210938
0.0019292831420898438
0.0019373893737792969
0.0019245147705078125
0.0019664764404296875
0.0019249916076660156
0.0019273757934570312
0.0019183158874511719
0.0019230842590332031
0.001953125
0.0019278526306152344
0.001917123794555664
0.0019714832305908203
0.0019214153289794922
0.0019795894622802734
0.0019230842590332031
0.0019533634185791016
0.0019080638885498047
0.0019130706787109375
0.0019497871398925781
0.0019214153289794922
0.0019116401672363281
0.0019142627716064453
0.0019409656524658203
0.0019223690032958984
0.001931905746459961
0.0019176006317138672
0.0019254684448242188
0.0019176006317138672
0.0019073486328125
0.0019254684448242188
0.0019230842590332031
0.001954317092895508
0.0019192695617675781
0.0019180774688720703
0.001920938491821289
0.0019195079803466797
0.001922607421875
0.0019388198852539062
0.0019299983978271484
0.0019397735595703125
0.0019252300262451172
0.0019528865814208984
0.0019156932830810547
0.0019366741180419922
0.001956462860107422
0.0019261837005615234
0.0019147396087646484
0.001969575881958008
0.0019354820251464844
0.0019779205322265625
0.001922607421875
0.0019235610961914062
0.0019211769104003906
0.0019195079803466797
0.0019176006317138672
0.001926422119140625
0.001924753189086914
0.001922607421875
0.001917123794555664
0.0019311904907226562
0.001979827880859375
0.0019326210021972656
0.001918792724609375
0.0019381046295166016
0.0019228458404541016
0.0019276142120361328
0.0018124580383300781
0.0017888545989990234
0.0017881393432617188
0.0017812252044677734
0.0017731189727783203
0.0015659332275390625
0.0015571117401123047
0.0015194416046142578
0.00150299072265625
0.0014882087707519531
0.0015697479248046875
0.0015697479248046875
0.0015583038330078125
0.0015594959259033203
0.0015649795532226562
0.0015101432800292969
0.0015056133270263672
0.0015041828155517578
0.0015270709991455078
0.001486063003540039
0.0015735626220703125
0.0015783309936523438
0.00156402587890625
0.0015821456909179688
0.001561880111694336
0.0016281604766845703
0.001512289047241211
0.0014874935150146484
0.0015239715576171875
0.0015189647674560547
0.0015616416931152344
0.0016243457794189453
0.001573324203491211
0.0015680789947509766
0.0015571117401123047
0.0016739368438720703
0.001514434814453125
0.001493215560913086
0.0014963150024414062
0.0014896392822265625
0.0015091896057128906
0.0016269683837890625
0.0015654563903808594
0.0015668869018554688
0.0015552043914794922
0.0016283988952636719
0.0015106201171875
0.0014901161193847656
0.0014955997467041016
0.0014891624450683594
0.0014929771423339844
0.0015168190002441406
0.0015180110931396484
0.00148773193359375
0.001491546630859375
0.0014879703521728516
0.0015997886657714844
0.001569509506225586
0.0015566349029541016
0.0015659332275390625
0.0015616416931152344
0.0014979839324951172
0.001501321792602539
0.0015406608581542969
0.0015268325805664062
0.0015208721160888672
0.0016698837280273438
0.0016560554504394531
0.0016541481018066406
0.0016794204711914062
0.0016703605651855469
0.00170135498046875
0.0016465187072753906
0.0015320777893066406
0.0015516281127929688
0.0015323162078857422
0.001516580581665039
0.001590728759765625
0.0015685558319091797
0.0015709400177001953
0.001562356948852539
0.0016829967498779297
0.0015232563018798828
0.0015010833740234375
0.0015072822570800781
0.001489877700805664
0.0015990734100341797
0.0016033649444580078
0.0015690326690673828
0.0015716552734375
0.0015614032745361328
0.0016422271728515625
0.0015201568603515625
0.0014994144439697266
0.0015003681182861328
0.001524209976196289
0.0015053749084472656
0.0016276836395263672
0.001600503921508789
0.0015664100646972656
0.0015614032745361328
0.0015659332275390625
0.0015227794647216797
0.001489400863647461
0.0014958381652832031
0.001485586166381836
0.0015292167663574219
0.0014977455139160156
0.0015590190887451172
0.0016274452209472656
0.001538991928100586
0.0015041828155517578
0.0015921592712402344
0.0015759468078613281
0.001577138900756836
0.001584768295288086
0.0016360282897949219
0.0016510486602783203
0.001519918441772461
0.003055095672607422
0.0017557144165039062
0.001611471176147461
0.0017158985137939453
0.0016765594482421875
0.0016045570373535156
0.0017333030700683594
0.0016739368438720703
0.0016908645629882812
0.0017251968383789062
0.0016949176788330078
0.0017008781433105469
0.0017392635345458984
0.0017118453979492188
0.0019791126251220703
0.0019464492797851562
0.0019304752349853516
0.0019335746765136719
0.001970052719116211
0.001936197280883789
0.0019288063049316406
0.0019345283508300781
0.001935720443725586
0.0019555091857910156
0.002025604248046875
0.001967906951904297
0.0019350051879882812
0.0019345283508300781
0.0019304752349853516
0.0019381046295166016
0.0019292831420898438
0.0019297599792480469
0.0019290447235107422
0.0019283294677734375
0.0019931793212890625
0.0019283294677734375
0.0019631385803222656
0.001958608627319336
0.0019345283508300781
0.0019257068634033203
0.0019295215606689453
0.001926422119140625
0.001918792724609375
0.0019185543060302734
0.0019233226776123047
0.0019376277923583984
0.0019431114196777344
0.0019257068634033203
0.0019447803497314453
0.0019223690032958984
0.0019290447235107422
0.0019207000732421875
0.0019197463989257812
0.001917123794555664
0.002044677734375
0.0020682811737060547
0.0019462108612060547
0.0019600391387939453
0.001943349838256836
0.0019621849060058594
0.0019683837890625
0.001931905746459961
0.001971006393432617
0.0019364356994628906
0.0019354820251464844
0.0019497871398925781
0.0019550323486328125
0.0019655227661132812
0.0019376277923583984
0.001957416534423828
0.0019414424896240234
0.001968860626220703
0.001920461654663086
0.0019276142120361328
0.001950979232788086
0.001943826675415039
0.0019516944885253906
0.0019507408142089844
0.00193023681640625
0.0019409656524658203
0.0019445419311523438
0.0019412040710449219
0.0019545555114746094
0.0019183158874511719
0.0019230842590332031
0.0019240379333496094
0.0019495487213134766
0.001971721649169922
0.0019550323486328125
0.0019364356994628906
0.0019621849060058594
0.0019876956939697266
0.001967906951904297
0.001960277557373047
0.001968860626220703
0.0019397735595703125
0.0019352436065673828
0.0019435882568359375
0.0019192695617675781
0.0019237995147705078
0.0019218921661376953
0.001918792724609375
0.001926422119140625
0.0019261837005615234
0.001947164535522461
0.0019469261169433594
0.00194549560546875
0.0019333362579345703
0.0019197463989257812
0.0019235610961914062
0.001987457275390625
0.0019383430480957031
0.0019996166229248047
0.0019385814666748047
0.0019354820251464844
0.001962900161743164
0.001943349838256836
0.0019915103912353516
0.0019326210021972656
0.0019240379333496094
0.0019235610961914062
0.0019216537475585938
0.0019214153289794922
0.001967191696166992
0.0019330978393554688
0.0019333362579345703
0.0019352436065673828
0.00196075439453125
0.0019712448120117188
0.0019297599792480469
0.001928567886352539
0.001928567886352539
0.001920938491821289
0.0019338130950927734
0.0019273757934570312
0.0019240379333496094
0.001928091049194336
0.0019452571868896484
0.0019698143005371094
0.001926422119140625
0.001928091049194336
0.001920461654663086
0.0019261837005615234
0.0019335746765136719
0.0019266605377197266
0.0019342899322509766
0.0019237995147705078
0.0019202232360839844
0.0019559860229492188
0.0019555091857910156
0.0019237995147705078
0.0019292831420898438
0.0019190311431884766
0.0019278526306152344
0.0019376277923583984
0.0019259452819824219
0.0019295215606689453
0.0019299983978271484
0.0019598007202148438
0.0019347667694091797
0.001928567886352539
0.001986265182495117
0.0020172595977783203
0.0019431114196777344
0.0019419193267822266
0.0019273757934570312
0.0019266605377197266
0.0019288063049316406
0.0019268989562988281
0.0019328594207763672
0.0019333362579345703
0.001928091049194336
0.0019466876983642578
0.0019583702087402344
0.001964092254638672
0.0022301673889160156
0.0020711421966552734
0.0018053054809570312
0.0017971992492675781
0.0017702579498291016
0.0016627311706542969
0.0016398429870605469
0.0016565322875976562
0.001634836196899414
0.001710653305053711
0.001977682113647461
0.0019407272338867188
0.002040386199951172
0.0019648075103759766
0.002204418182373047
0.0019350051879882812
0.001943349838256836
0.0019068717956542969
0.0018963813781738281
0.0018990039825439453
0.0019330978393554688
0.001909017562866211
0.0019631385803222656
0.0019750595092773438
0.0019636154174804688
0.0019423961639404297
0.001949310302734375
0.0019378662109375
0.002079010009765625
0.0019745826721191406
0.001961231231689453
0.0019528865814208984
0.0019311904907226562
0.0019457340240478516
0.0019345283508300781
0.0019638538360595703
0.00193023681640625
0.0019826889038085938
0.001949310302734375
0.0019311904907226562
0.0019371509552001953
0.0019338130950927734
0.0019779205322265625
0.0019636154174804688
0.0019423961639404297
0.0020003318786621094
0.0019333362579345703
0.0019466876983642578
0.0019316673278808594
0.0019435882568359375
0.0020444393157958984
0.001947641372680664
0.001932382583618164
0.0019254684448242188
0.0019381046295166016
0.0019392967224121094
0.0019600391387939453
0.0019288063049316406
0.001922607421875
0.0019197463989257812
0.001932382583618164
0.0019326210021972656
0.002002239227294922
0.001956939697265625
0.0019392967224121094
0.0019359588623046875
0.0019686222076416016
0.0019719600677490234
0.0019676685333251953
0.0019450187683105469
0.0019373893737792969
0.001972198486328125
0.0019690990447998047
0.0019478797912597656
0.001932382583618164
0.0019407272338867188
0.0019390583038330078
0.0019500255584716797
0.0019371509552001953
0.001979351043701172
0.001935720443725586
0.0019352436065673828
0.001934051513671875
0.001934051513671875
0.0019307136535644531
0.0019326210021972656
0.0019276142120361328
0.002003908157348633
0.001958608627319336
0.0019540786743164062
0.0019485950469970703
0.0019497871398925781
0.0019390583038330078
0.0019409656524658203
0.0019369125366210938
0.0019407272338867188
0.0019292831420898438
0.0019655227661132812
0.001934051513671875
0.0019397735595703125
0.001961946487426758
0.0019481182098388672
0.0020377635955810547
0.0019402503967285156
0.0019299983978271484
0.001935720443725586
0.0019392967224121094
0.0019769668579101562
0.0019350051879882812
0.0019350051879882812
0.0019345283508300781
0.0019338130950927734
0.001974821090698242
0.0019702911376953125
0.001979827880859375
0.0019385814666748047
0.0019376277923583984
0.001966714859008789
0.0019497871398925781
0.002051830291748047
0.0019669532775878906
0.001947641372680664
0.0019450187683105469
0.0019989013671875
0.001951456069946289
0.0019719600677490234
0.0019392967224121094
0.001939535140991211
0.0019333362579345703
0.001961231231689453
0.0019447803497314453
0.001943826675415039
0.001971721649169922
0.0019469261169433594
0.0019507408142089844
0.0019638538360595703
0.001947164535522461
0.002008199691772461
0.0019497871398925781
0.00196075439453125
0.0019352436065673828
0.001941680908203125
0.0019345283508300781
0.001935720443725586
0.0019435882568359375
0.0019345283508300781
0.0019481182098388672
0.0019516944885253906
0.0019533634185791016
0.0019335746765136719
0.0019299983978271484
0.0019505023956298828
0.001935720443725586
0.0019333362579345703
0.0019321441650390625
0.0019414424896240234
0.0019273757934570312
0.0019338130950927734
0.0019724369049072266
0.0019969940185546875
0.0019481182098388672
0.001935720443725586
0.0020036697387695312
0.0019483566284179688
0.001981973648071289
0.0019526481628417969
0.0019392967224121094
0.001934051513671875
0.001935720443725586
0.0019664764404296875
0.0019495487213134766
0.0019593238830566406
0.001934051513671875
0.0019404888153076172
0.0019376277923583984
0.0019447803497314453
0.0019359588623046875
0.0019407272338867188
0.0019295215606689453
0.0019466876983642578
0.0019397735595703125
0.001961946487426758
0.0019443035125732422
0.0019392967224121094
0.0019328594207763672
0.001961946487426758
0.0019297599792480469
0.0019714832305908203
0.0019459724426269531
0.0019474029541015625
0.001980304718017578
0.001967191696166992
0.002027273178100586
0.001975536346435547
0.0019838809967041016
0.0019392967224121094
0.00194549560546875
0.0019354820251464844
0.001935720443725586
0.0019364356994628906
0.0019326210021972656
0.001941680908203125
0.0019397735595703125
0.0019795894622802734
0.0019578933715820312
0.0019526481628417969
0.0019383430480957031
0.0019378662109375
0.0019245147705078125
0.0019354820251464844
0.001924753189086914
0.0019669532775878906
0.0019707679748535156
0.0019373893737792969
0.0019412040710449219
0.0019578933715820312
0.0020020008087158203
0.001962900161743164
0.0019731521606445312
0.001981019973754883
0.001941680908203125
0.0019338130950927734
0.002000570297241211
0.0019495487213134766
0.0019423961639404297
0.0019481182098388672
0.0019617080688476562
0.001954793930053711
0.0019555091857910156
0.0019559860229492188
0.0019397735595703125
0.0019352436065673828
0.0019392967224121094
0.0019409656524658203
0.0019371509552001953
0.0019335746765136719
0.0019328594207763672
0.0020051002502441406
0.001957416534423828
0.001949310302734375
0.001958608627319336
0.0019445419311523438
0.001971006393432617
0.001967191696166992
0.001939535140991211
0.0019378662109375
0.0019330978393554688
0.00193023681640625
0.0019409656524658203
0.0019452571868896484
0.0019333362579345703
0.0020592212677001953
0.0020782947540283203
0.001972675323486328
0.0019707679748535156
0.0019617080688476562
0.0019431114196777344
0.0019373893737792969
0.001953601837158203
0.0019347667694091797
0.0019385814666748047
0.0019769668579101562
0.0020287036895751953
0.0020132064819335938
0.0019364356994628906
0.0019390583038330078
0.0019402503967285156
0.0019369125366210938
0.0019686222076416016
0.0019381046295166016
0.0019686222076416016
0.001974821090698242
0.001986265182495117
0.0019965171813964844
0.0020034313201904297
0.0025534629821777344
0.0022988319396972656
0.002185821533203125
0.002189159393310547
0.0018935203552246094
0.0018329620361328125
0.0018172264099121094
0.0018439292907714844
0.0018148422241210938
0.0020503997802734375
0.002028226852416992
0.0019865036010742188
0.00200653076171875
0.002044200897216797
0.0020432472229003906
0.001994609832763672
0.001963376998901367
0.001969575881958008
0.0019533634185791016
0.0019559860229492188
0.0019941329956054688
0.0019524097442626953
0.0019788742065429688
0.0019469261169433594
0.0019502639770507812
0.0019412040710449219
0.0019407272338867188
0.0019423961639404297
0.0019447803497314453
0.001980304718017578
0.0019457340240478516
0.001956462860107422
0.002012014389038086
0.0019571781158447266
0.0019462108612060547
0.0019428730010986328
0.0019385814666748047
0.0019867420196533203
0.0019469261169433594
0.0019495487213134766
0.001951456069946289
0.0019428730010986328
0.0019354820251464844
0.0019979476928710938
0.002728700637817383
0.0021309852600097656
0.002021312713623047
0.0019681453704833984
0.0019598007202148438
0.001951456069946289
0.001967906951904297
0.0019478797912597656
0.0019528865814208984
0.0019447803497314453
0.0019683837890625
0.0020318031311035156
0.0019600391387939453
0.001977682113647461
0.0019423961639404297
0.0019381046295166016
0.0019800662994384766
0.0019373893737792969
0.0019855499267578125
0.0019533634185791016
0.0019528865814208984
0.0019407272338867188
0.001973390579223633
0.0019800662994384766
0.0019903182983398438
0.0019507408142089844
0.0019462108612060547
0.0018157958984375
0.0018200874328613281
0.001800537109375
0.0017971992492675781
0.0017883777618408203
0.0015141963958740234
0.0014977455139160156
0.0014984607696533203
0.0015075206756591797
0.0015113353729248047
0.0015804767608642578
0.0015780925750732422
0.001619100570678711
0.0016021728515625
0.0015959739685058594
0.0016651153564453125
0.0015385150909423828
0.0015087127685546875
0.0015032291412353516
0.001531362533569336
0.0016045570373535156
0.00159454345703125
0.0015723705291748047
0.001589059829711914
0.0015807151794433594
0.001651763916015625
0.0029134750366210938
0.0017347335815429688
0.0015614032745361328
0.0015454292297363281
0.0015299320220947266
0.0017511844635009766
0.0017104148864746094
0.0017218589782714844
0.0016770362854003906
0.001683950424194336
0.0016019344329833984
0.0015869140625
0.0015780925750732422
0.0015807151794433594
0.0015816688537597656
0.0016300678253173828
0.0016252994537353516
0.0016255378723144531
0.0015821456909179688
0.001580953598022461
0.0015180110931396484
0.0014998912811279297
0.0015065670013427734
0.0014989376068115234
0.0014939308166503906
0.0016925334930419922
0.0016703605651855469
0.001733541488647461
0.001705169677734375
0.001682281494140625
0.0017316341400146484
0.0015187263488769531
0.0015015602111816406
0.0014925003051757812
0.001495361328125
0.0015244483947753906
0.0015921592712402344
0.0015780925750732422
0.0015709400177001953
0.0016329288482666016
0.0017228126525878906
0.0015163421630859375
0.00150299072265625
0.0015032291412353516
0.0014965534210205078
0.0014986991882324219
0.001596212387084961
0.0015745162963867188
0.0016093254089355469
0.0015914440155029297
0.0016012191772460938
0.0015320777893066406
0.0014977455139160156
0.0015025138854980469
0.001499176025390625
0.0014986991882324219
0.0015020370483398438
0.0015192031860351562
0.0014984607696533203
0.0014972686767578125
0.001508474349975586
0.001596212387084961
0.0016148090362548828
0.0016069412231445312
0.0015749931335449219
0.0016338825225830078
0.0016601085662841797
0.00151824951171875
0.0015170574188232422
0.0015048980712890625
0.0015006065368652344
0.0015170574188232422
0.0015895366668701172
0.001600027084350586
0.0015854835510253906
0.001577138900756836
0.0016450881958007812
0.0015282630920410156
0.0015065670013427734
0.0015285015106201172
0.0018382072448730469
0.0018000602722167969
0.0016367435455322266
0.0016164779663085938
0.0015981197357177734
0.001600503921508789
0.001619577407836914
0.0015230178833007812
0.001537322998046875
0.0015070438385009766
0.0015685558319091797
0.001543283462524414
0.0017077922821044922
0.0016901493072509766
0.0016758441925048828
0.0016820430755615234
0.0016903877258300781
0.0017521381378173828
0.0015096664428710938
0.0015249252319335938
0.0015113353729248047
0.0015034675598144531
0.0016129016876220703
0.0017011165618896484
0.001678466796875
0.0016808509826660156
0.0016751289367675781
0.0017955303192138672
0.001996278762817383
0.0019865036010742188
0.0019516944885253906
0.001941680908203125
0.001973867416381836
0.0019478797912597656
0.0019545555114746094
0.0019795894622802734
0.0019533634185791016
0.0019598007202148438
0.0019791126251220703
0.0019614696502685547
0.002014636993408203
0.001958608627319336
0.0019474029541015625
0.001965045928955078
0.001966238021850586
0.0019562244415283203
0.001965761184692383
0.001953601837158203
0.001959085464477539
0.0019481182098388672
0.0019736289978027344
0.0020020008087158203
0.001964569091796875
0.0019550323486328125
0.0019450187683105469
0.001956462860107422
0.0019445419311523438
0.001955747604370117
0.0019905567169189453
0.0019538402557373047
0.001978635787963867
0.001968860626220703
0.0019757747650146484
0.0020003318786621094
0.0019502639770507812
0.0019512176513671875
0.001953125
0.0019412040710449219
0.001951456069946289
0.001995086669921875
0.0019876956939697266
0.0019559860229492188
0.0019521713256835938
0.0019941329956054688
0.0019593238830566406
0.0019838809967041016
0.0021469593048095703
0.002015829086303711
0.0019769668579101562
0.00200653076171875
0.001954793930053711
0.001960277557373047
0.0019540786743164062
0.001961231231689453
0.002026796340942383
0.0020225048065185547
0.001990079879760742
0.001963376998901367
0.001955747604370117
0.001958131790161133
0.001960277557373047
0.001959562301635742
0.001949310302734375
0.001953601837158203
0.0019528865814208984
0.0019698143005371094
0.0019953250885009766
0.0019648075103759766
0.001979351043701172
0.0019478797912597656
0.001965045928955078
0.0019555091857910156
0.001950979232788086
0.0019769668579101562
0.0019567012786865234
0.001967191696166992
0.0019466876983642578
0.0019872188568115234
0.0019698143005371094
0.001990079879760742
0.001995563507080078
0.001964092254638672
0.0019617080688476562
0.001953601837158203
0.001947641372680664
0.0019860267639160156
0.001956939697265625
0.0019555091857910156
0.001953601837158203
0.001998424530029297
0.002004384994506836
0.0019788742065429688
0.0019521713256835938
0.001961946487426758
0.0019524097442626953
0.0019931793212890625
0.0019621849060058594
0.0019676685333251953
0.001956939697265625
0.001953601837158203
0.001977682113647461
0.001963376998901367
0.0019843578338623047
0.0019516944885253906
0.0019481182098388672
0.001981019973754883
0.001965045928955078
0.0019659996032714844
0.0019526481628417969
0.0019538402557373047
0.0019488334655761719
0.0019698143005371094
0.0020148754119873047
0.0019826889038085938
0.0019538402557373047
0.0019550323486328125
0.0019905567169189453
0.001953601837158203
0.0019526481628417969
0.0019519329071044922
0.0019512176513671875
0.001989126205444336
0.0019528865814208984
0.0019686222076416016
0.00197601318359375
0.002038717269897461
0.001955747604370117
0.001976490020751953
0.0019483566284179688
0.001961231231689453
0.0019941329956054688
0.001966714859008789
0.001958131790161133
0.00196075439453125
0.0019707679748535156
0.0019652843475341797
0.002006053924560547
0.0019795894622802734
0.0019617080688476562
0.001967191696166992
0.0019922256469726562
0.0020656585693359375
0.0020852088928222656
0.0019867420196533203
0.001984119415283203
0.0019702911376953125
0.0019898414611816406
0.0019960403442382812
0.0019903182983398438
0.0019638538360595703
0.0019729137420654297
0.0019526481628417969
0.0019617080688476562
0.0019979476928710938
0.0019626617431640625
0.0022125244140625
0.0020029544830322266
0.0020067691802978516
0.001965045928955078
0.0019884109497070312
0.0020325183868408203
0.001979827880859375
0.002042055130004883
0.002002239227294922
0.001995563507080078
0.001993894577026367
0.0019915103912353516
0.001995563507080078
0.001972675323486328
0.001995563507080078
0.0019588470458984375
0.001972198486328125
0.001950979232788086
0.0019648075103759766
0.001990079879760742
0.002000570297241211
0.001966714859008789
0.001994609832763672
0.0020046234130859375
0.0019817352294921875
0.0020186901092529297
0.0020062923431396484
0.0020096302032470703
0.001962900161743164
0.001968860626220703
0.0019681453704833984
0.001955270767211914
0.0019643306732177734
0.0019502639770507812
0.0020020008087158203
0.0019714832305908203
0.001962423324584961
0.001967906951904297
0.0019698143005371094
0.0019788742065429688
0.001960277557373047
0.0019562244415283203
0.0019669532775878906
0.001951456069946289
0.0019674301147460938
0.001956462860107422
0.0019540786743164062
0.0019555091857910156
0.0020437240600585938
0.002020120620727539
0.0020399093627929688
0.0019605159759521484
0.0019690990447998047
0.001979827880859375
0.001966238021850586
0.0019683837890625
0.0019500255584716797
0.0019528865814208984
0.0019578933715820312
0.0019567012786865234
0.0020020008087158203
0.001986980438232422
0.0019741058349609375
0.0019659996032714844
0.001964092254638672
0.001970052719116211
0.002288818359375
0.002000570297241211
0.001984119415283203
0.001973390579223633
0.0019698143005371094
0.0019881725311279297
0.0019850730895996094
0.002004384994506836
0.002000093460083008
0.002045154571533203
0.0020008087158203125
0.0019741058349609375
0.001960277557373047
0.001957416534423828
0.001962900161743164
0.0019605159759521484
0.001960277557373047
0.0019681453704833984
0.0019731521606445312
0.0019867420196533203
0.002023458480834961
0.001974344253540039
0.0019600391387939453
0.0019648075103759766
0.0019674301147460938
0.001965761184692383
0.001978158950805664
0.0019609928131103516
0.002025127410888672
0.002488374710083008
0.002078533172607422
0.0019795894622802734
0.001970052719116211
0.001962423324584961
0.00200653076171875
0.0020046234130859375
0.001960277557373047
0.001964569091796875
0.001959085464477539
0.0019559860229492188
0.002017974853515625
0.0019519329071044922
0.001992464065551758
0.0023658275604248047
0.002185344696044922
0.002014636993408203
0.0018575191497802734
0.0018186569213867188
0.0018360614776611328
0.0018281936645507812
0.0018122196197509766
0.0019965171813964844
0.002008676528930664
0.001992940902709961
0.0019567012786865234
0.0019559860229492188
0.001962900161743164
0.001961231231689453
0.0019507408142089844
0.0019986629486083984
0.0020279884338378906
0.001983642578125
0.0019707679748535156
0.0019960403442382812
0.002001047134399414
0.0019807815551757812
0.001970052719116211
0.0019652843475341797
0.0019741058349609375
0.0019631385803222656
0.001962423324584961
0.0019936561584472656
0.0020177364349365234
0.0019659996032714844
0.0019981861114501953
0.0021800994873046875
0.002090930938720703
0.001997709274291992
0.0019788742065429688
0.0019600391387939453
0.001970529556274414
0.0019674301147460938
0.0020160675048828125
0.001963376998901367
0.0020194053649902344
0.002003192901611328
0.0019867420196533203
0.0019898414611816406
0.0019745826721191406
0.001962900161743164
0.001973867416381836
0.0019659996032714844
0.0019750595092773438
0.001961231231689453
0.001968860626220703
0.0019614696502685547
0.001964569091796875
0.0020058155059814453
0.0019788742065429688
0.002010822296142578
0.001960277557373047
0.0019538402557373047
0.001993894577026367
0.001961231231689453
0.0019605159759521484
0.0019576549530029297
0.0019659996032714844
0.001996278762817383
0.0019783973693847656
0.001981973648071289
0.0019936561584472656
0.001955270767211914
0.0020017623901367188
0.001963376998901367
0.0019669532775878906
0.001959085464477539
0.001967906951904297
0.0019664764404296875
0.0019714832305908203
0.0019583702087402344
0.001984119415283203
0.002020597457885742
0.0019996166229248047
0.001958608627319336
0.0020105838775634766
0.0019669532775878906
0.0019838809967041016
0.0019621849060058594
0.0019719600677490234
0.001954793930053711
0.001964569091796875
0.001971721649169922
0.0019659996032714844
0.0020172595977783203
0.002002716064453125
0.0019676685333251953
0.001958608627319336
0.001961231231689453
0.001965045928955078
0.0019621849060058594
0.001961946487426758
0.0019526481628417969
0.0019631385803222656
0.0019712448120117188
0.0019834041595458984
0.001967191696166992
0.0019664764404296875
0.001955747604370117
0.0019614696502685547
0.001970529556274414
0.0019805431365966797
0.001996755599975586
0.0019617080688476562
0.0019669532775878906
0.0019757747650146484
0.0019731521606445312
0.001987457275390625
0.001957416534423828
0.001966714859008789
0.0019888877868652344
0.001972198486328125
0.001963376998901367
0.001970052719116211
0.00196075439453125
0.0019898414611816406
0.0019676685333251953
0.0019881725311279297
0.001980304718017578
0.0019843578338623047
0.0019915103912353516
0.0019676685333251953
0.001966714859008789
0.001958131790161133
0.0019593238830566406
0.0019986629486083984
0.001947164535522461
0.0020105838775634766
0.001983642578125
0.001967191696166992
0.0019922256469726562
0.0019829273223876953
0.0019690990447998047
0.001963376998901367
0.0019614696502685547
0.002002239227294922
0.0019788742065429688
0.0019683837890625
0.0019648075103759766
0.0019664764404296875
0.0019829273223876953
0.0019845962524414062
0.0019731521606445312
0.0019648075103759766
0.001959562301635742
0.0019621849060058594
0.0019643306732177734
0.0019571781158447266
0.001961231231689453
0.0019664764404296875
0.0019643306732177734
0.0019872188568115234
0.0019805431365966797
0.0019996166229248047
0.001966238021850586
0.0019545555114746094
0.0019898414611816406
0.001966238021850586
0.001956939697265625
0.001958608627319336
0.001979351043701172
0.0019872188568115234
0.0019614696502685547
0.0020084381103515625
0.0019817352294921875
0.001969575881958008
0.001967191696166992
0.0020024776458740234
0.0019707679748535156
0.0019686222076416016
0.001973867416381836
0.001966714859008789
0.001965761184692383
0.0020034313201904297
0.0019826889038085938
0.0019881725311279297
0.0019812583923339844
0.001984119415283203
0.001971006393432617
0.001979351043701172
0.001970529556274414
0.0019669532775878906
0.0019953250885009766
0.0019593238830566406
0.0019593238830566406
0.0021800994873046875
0.0020477771759033203
0.0020363330841064453
0.0020411014556884766
0.0019855499267578125
0.001978158950805664
0.002000570297241211
0.001975536346435547
0.001991748809814453
0.0019741058349609375
0.0019812583923339844
0.001969575881958008
0.0020012855529785156
0.0019865036010742188
0.002019166946411133
0.001972675323486328
0.001960277557373047
0.0019676685333251953
0.002103090286254883
0.0019872188568115234
0.0019774436950683594
0.001965761184692383
0.0020751953125
0.002032756805419922
0.0020160675048828125
0.0020482540130615234
0.0019927024841308594
0.001975536346435547
0.0019867420196533203
0.001984119415283203
0.001966714859008789
0.0019769668579101562
0.0019762516021728516
0.0019690990447998047
0.0019953250885009766
0.0020024776458740234
0.002008676528930664
0.0020034313201904297
0.0019822120666503906
0.001983642578125
0.0019788742065429688
0.001974344253540039
0.001986265182495117
0.001964569091796875
0.0019812583923339844
0.0019724369049072266
0.002025127410888672
0.001996755599975586
0.001988649368286133
0.002083301544189453
0.0017547607421875
0.0017058849334716797
0.001705169677734375
0.001699686050415039
0.0016946792602539062
0.0015399456024169922
0.0015239715576171875
0.0015213489532470703
0.0015175342559814453
0.001983165740966797
0.001789093017578125
0.0016613006591796875
0.001642465591430664
0.0016160011291503906
0.0016283988952636719
0.0016093254089355469
0.0016143321990966797
0.0016334056854248047
0.001598358154296875
0.0016007423400878906
0.0015780925750732422
0.0015571117401123047
0.0015499591827392578
0.0015282630920410156
0.0015208721160888672
0.001684427261352539
0.0016198158264160156
0.00160980224609375
0.0016431808471679688
0.0016379356384277344
0.0016903877258300781
0.0015516281127929688
0.0015995502471923828
0.001580953598022461
0.0015561580657958984
0.0016131401062011719
0.0016524791717529297
0.0016255378723144531
0.0016345977783203125
0.0016374588012695312
0.0016813278198242188
0.0016906261444091797
0.0015697479248046875
0.001607656478881836
0.00157928466796875
0.0015461444854736328
0.00165557861328125
