0.003163576126098633
0.0014679431915283203
0.0013298988342285156
0.0013246536254882812
0.001298666000366211
0.0013496875762939453
0.0012917518615722656
0.0012748241424560547
0.001291036605834961
0.0013148784637451172
0.0016834735870361328
0.0016701221466064453
0.001661539077758789
0.0016493797302246094
0.002012491226196289
0.0019485950469970703
0.0019474029541015625
0.0019390583038330078
0.0019345283508300781
0.0019176006317138672
0.0019338130950927734
0.0019218921661376953
0.0019545555114746094
0.0020601749420166016
0.0019538402557373047
0.001956462860107422
0.0020999908447265625
0.001962423324584961
0.001956939697265625
0.002065896987915039
0.0019690990447998047
0.001958131790161133
0.002114534378051758
0.001886129379272461
0.0017955303192138672
0.0016486644744873047
0.0015420913696289062
0.0015950202941894531
0.001516103744506836
0.0014963150024414062
0.0016865730285644531
0.0015828609466552734
0.0015692710876464844
0.001569509506225586
0.0016658306121826172
0.0015304088592529297
0.0014941692352294922
0.0015633106231689453
0.0015664100646972656
0.001516103744506836
0.0015947818756103516
0.0015690326690673828
0.0017673969268798828
0.0017364025115966797
0.0017483234405517578
0.002120494842529297
0.002049684524536133
0.0018432140350341797
0.0019805431365966797
0.0018472671508789062
0.0016834735870361328
0.0016665458679199219
0.0016770362854003906
0.001804351806640625
0.0018835067749023438
0.0017325878143310547
0.0017337799072265625
0.001684427261352539
0.001764059066772461
0.001821279525756836
0.0014150142669677734
0.0013637542724609375
0.0012788772583007812
0.0014240741729736328
0.0013818740844726562
0.001253366470336914
0.0012767314910888672
0.0012507438659667969
0.001252889633178711
0.0012564659118652344
0.001230478286743164
0.0012803077697753906
0.0012302398681640625
0.0012366771697998047
0.0012581348419189453
0.0012385845184326172
0.001239776611328125
0.0012307167053222656
0.00124359130859375
0.001230001449584961
0.0012633800506591797
0.0014069080352783203
0.0015377998352050781
0.0014011859893798828
0.0014088153839111328
0.0014414787292480469
0.0015690326690673828
0.0016510486602783203
0.0014424324035644531
0.0014786720275878906
0.0014815330505371094
0.001386880874633789
0.0012965202331542969
0.001455068588256836
0.0014147758483886719
0.0012786388397216797
0.0016093254089355469
0.0017859935760498047
0.0018143653869628906
0.0017170906066894531
0.0016748905181884766
0.0016088485717773438
0.0015671253204345703
0.0019049644470214844
0.0018537044525146484
0.001783609390258789
0.0022344589233398438
0.0014617443084716797
0.001413583755493164
0.0015652179718017578
0.0015006065368652344
0.0016918182373046875
0.001886606216430664
0.001474142074584961
0.0015516281127929688
0.0014657974243164062
0.001531362533569336
0.0014157295227050781
0.0014843940734863281
0.0015053749084472656
0.0014140605926513672
0.0015952587127685547
0.0016279220581054688
0.0014202594757080078
0.0014269351959228516
0.0012848377227783203
0.0013020038604736328
0.0014197826385498047
0.0013427734375
0.001283407211303711
0.0012602806091308594
0.0014142990112304688
0.0014917850494384766
0.0014367103576660156
0.0032079219818115234
0.0016014575958251953
0.003785371780395508
0.001455545425415039
0.0017766952514648438
0.0023326873779296875
0.0015292167663574219
0.0018672943115234375
0.0018439292907714844
0.0016307830810546875
0.0018112659454345703
0.0017163753509521484
0.0013887882232666016
0.001558065414428711
0.0014123916625976562
0.0014317035675048828
0.0015294551849365234
0.0015239715576171875
0.001405477523803711
0.0018210411071777344
0.0014293193817138672
0.0015327930450439453
0.0015954971313476562
0.0014851093292236328
0.0014886856079101562
0.0017809867858886719
0.0015399456024169922
0.001590728759765625
0.0014202594757080078
0.0015256404876708984
0.0019686222076416016
0.0015676021575927734
0.0016040802001953125
0.0027506351470947266
0.0020134449005126953
0.00571131706237793
0.0019402503967285156
0.0017287731170654297
0.0015685558319091797
0.0016858577728271484
0.0015707015991210938
0.0016884803771972656
0.0014033317565917969
0.0014567375183105469
0.0016446113586425781
0.0014042854309082031
0.001405954360961914
0.0017702579498291016
0.001772165298461914
0.00188446044921875
0.0017676353454589844
0.0017561912536621094
0.0020475387573242188
0.002093076705932617
0.0021512508392333984
0.0021445751190185547
0.002107381820678711
0.002048969268798828
0.002004861831665039
0.0019714832305908203
0.0020399093627929688
0.001973390579223633
0.001963376998901367
0.0020351409912109375
0.0021326541900634766
0.002020120620727539
0.002179384231567383
0.002002239227294922
0.0018486976623535156
0.0018401145935058594
0.0018494129180908203
0.0019297599792480469
0.0019137859344482422
0.0018467903137207031
0.001844167709350586
0.0018787384033203125
0.0018701553344726562
0.0021266937255859375
0.001963376998901367
0.0019540786743164062
0.0018630027770996094
0.0018987655639648438
0.0019683837890625
0.0019690990447998047
0.0020051002502441406
0.001958131790161133
0.0019893646240234375
0.0020627975463867188
0.0021779537200927734
0.0027971267700195312
0.002138376235961914
0.0025534629821777344
0.002093076705932617
0.0018837451934814453
0.0019545555114746094
0.0018992424011230469
0.002077341079711914
0.002073526382446289
0.0019960403442382812
0.002544879913330078
0.0024313926696777344
0.0025293827056884766
0.0022194385528564453
0.0016684532165527344
0.0021867752075195312
0.001409292221069336
0.0014426708221435547
0.0013096332550048828
0.0016074180603027344
0.0015740394592285156
0.0013704299926757812
0.0014197826385498047
0.0013489723205566406
0.0018343925476074219
0.0013718605041503906
0.001514434814453125
0.0017998218536376953
0.0015158653259277344
0.0015821456909179688
0.0014328956604003906
0.0015735626220703125
0.002417325973510742
0.0014731884002685547
0.00135040283203125
0.0014412403106689453
0.001720428466796875
0.0015439987182617188
0.001470804214477539
0.0014672279357910156
0.0015397071838378906
0.0013575553894042969
0.0013723373413085938
0.0013117790222167969
0.0013036727905273438
0.001438140869140625
0.0017480850219726562
0.0015757083892822266
0.0013179779052734375
0.0021924972534179688
0.0018966197967529297
0.0021262168884277344
0.0017483234405517578
0.001970052719116211
0.0022482872009277344
0.0019872188568115234
0.0019631385803222656
0.002306222915649414
0.0025267601013183594
0.0020911693572998047
0.0025184154510498047
0.0018665790557861328
0.001903533935546875
0.0020143985748291016
0.004245281219482422
0.0017278194427490234
0.0018126964569091797
0.0019237995147705078
0.002089977264404297
0.0016140937805175781
0.0016257762908935547
0.0013175010681152344
0.0012311935424804688
0.0015621185302734375
0.0016093254089355469
0.0015130043029785156
0.001527547836303711
0.0013916492462158203
0.0016937255859375
0.0014805793762207031
0.0022253990173339844
0.002010822296142578
0.0018270015716552734
0.0015616416931152344
0.0017020702362060547
0.0018491744995117188
0.0015919208526611328
0.0015873908996582031
0.0015411376953125
0.0013470649719238281
0.0015909671783447266
0.0018215179443359375
0.0014879703521728516
0.0016782283782958984
0.0014879703521728516
0.0018525123596191406
0.0019068717956542969
0.0017056465148925781
0.0017747879028320312
0.0018880367279052734
0.0016372203826904297
0.0015959739685058594
0.0015795230865478516
0.0017199516296386719
0.0018894672393798828
0.0017023086547851562
0.0015976428985595703
0.0014929771423339844
0.0014982223510742188
0.001451730728149414
0.001470804214477539
0.0014178752899169922
0.0014295578002929688
0.0014166831970214844
0.0013916492462158203
0.0014967918395996094
0.0015985965728759766
0.0015666484832763672
0.0018229484558105469
0.0015041828155517578
0.0014524459838867188
0.0014379024505615234
0.0014543533325195312
0.0014429092407226562
0.00638580322265625
0.0015537738800048828
0.0016562938690185547
0.0017256736755371094
0.0016329288482666016
0.0018877983093261719
0.0016520023345947266
0.001672506332397461
0.001554250717163086
0.0016164779663085938
0.0014348030090332031
0.0014796257019042969
0.0015840530395507812
0.0014498233795166016
0.0019693374633789062
0.0016102790832519531
0.0016851425170898438
0.0013899803161621094
0.001661062240600586
0.0015594959259033203
0.0016269683837890625
0.0015652179718017578
0.0013954639434814453
0.0015377998352050781
0.001377105712890625
0.0015938282012939453
0.0016107559204101562
0.0016531944274902344
0.0014781951904296875
0.0015060901641845703
0.001588582992553711
0.0013949871063232422
0.006084442138671875
0.0014429092407226562
0.0013194084167480469
0.0015835762023925781
0.0015683174133300781
0.0016772747039794922
0.0016639232635498047
0.001566171646118164
0.0015261173248291016
0.0014102458953857422
0.0015964508056640625
0.0016651153564453125
0.001394033432006836
0.0017812252044677734
0.0017108917236328125
0.001958608627319336
0.0021514892578125
0.0019006729125976562
0.001905679702758789
0.001405477523803711
0.0014963150024414062
0.0015974044799804688
0.0015621185302734375
0.001439809799194336
0.0014584064483642578
0.0014138221740722656
0.0014507770538330078
0.001516103744506836
0.0016307830810546875
0.0015981197357177734
0.002403736114501953
0.0014140605926513672
0.0014934539794921875
0.0017254352569580078
0.0016202926635742188
0.0015883445739746094
0.0017066001892089844
0.002099752426147461
0.0023734569549560547
0.001699686050415039
0.0018115043640136719
0.0017344951629638672
0.001697540283203125
0.0017390251159667969
0.0015940666198730469
0.0016186237335205078
0.001477956771850586
0.001649618148803711
0.0014050006866455078
0.0015361309051513672
0.0014688968658447266
0.001447439193725586
0.0014061927795410156
0.0014040470123291016
0.0014350414276123047
0.0014007091522216797
0.0012576580047607422
0.0012052059173583984
0.0011966228485107422
0.001188039779663086
0.0012309551239013672
0.0012221336364746094
0.0012781620025634766
0.0011947154998779297
0.0011785030364990234
0.0011780261993408203
0.001172780990600586
0.001188516616821289
0.0011985301971435547
0.001172780990600586
0.0013370513916015625
0.0011932849884033203
0.001394033432006836
0.0012056827545166016
0.0018239021301269531
0.0013995170593261719
0.0012230873107910156
0.0012259483337402344
0.0011892318725585938
0.001172780990600586
0.0012023448944091797
0.001172780990600586
0.0011737346649169922
0.0011882781982421875
0.0011756420135498047
0.0012040138244628906
0.0019540786743164062
0.0012612342834472656
0.0012865066528320312
0.001691579818725586
0.0017881393432617188
0.0015561580657958984
0.0015485286712646484
0.0015461444854736328
0.001560211181640625
0.0014753341674804688
0.0014979839324951172
0.0014801025390625
0.0014491081237792969
0.0014696121215820312
0.001538991928100586
0.0015184879302978516
0.001699686050415039
0.0015430450439453125
0.0015461444854736328
0.0017480850219726562
0.0017430782318115234
0.0019974708557128906
0.0018291473388671875
0.001828908920288086
0.002321004867553711
0.00222015380859375
0.0023720264434814453
0.002486705780029297
0.002267122268676758
0.0014147758483886719
0.0012340545654296875
0.001194000244140625
0.0011916160583496094
0.0012063980102539062
0.0014693737030029297
0.0012307167053222656
0.001222848892211914
0.0012135505676269531
0.001201629638671875
0.0012004375457763672
0.001184225082397461
0.0011932849884033203
0.0011773109436035156
0.001184701919555664
0.001177072525024414
0.0011992454528808594
0.0011758804321289062
0.00116729736328125
0.0012059211730957031
0.001184701919555664
0.003826618194580078
0.0012886524200439453
0.0013849735260009766
0.0012066364288330078
0.0012180805206298828
0.0011827945709228516
0.001190185546875
0.0012087821960449219
0.001165628433227539
0.0013866424560546875
0.0014433860778808594
0.0015630722045898438
0.0014965534210205078
0.0015041828155517578
0.002407550811767578
0.0023005008697509766
0.0023882389068603516
0.0023407936096191406
0.0022978782653808594
0.0016019344329833984
0.0014019012451171875
0.0012388229370117188
0.0012056827545166016
0.0012156963348388672
0.001199483871459961
0.001184225082397461
0.0011837482452392578
0.0011742115020751953
0.0011789798736572266
0.0011754035949707031
0.0012159347534179688
0.0011909008026123047
0.0011749267578125
0.0011718273162841797
0.001377105712890625
0.001199483871459961
0.001207590103149414
0.001188039779663086
0.0011897087097167969
0.001184225082397461
0.0011970996856689453
0.0011970996856689453
0.0011775493621826172
0.0011692047119140625
0.0011699199676513672
0.0011644363403320312
0.0011680126190185547
0.0011649131774902344
0.001199960708618164
0.0011713504791259766
0.0012693405151367188
0.0012631416320800781
0.0013954639434814453
0.0012204647064208984
0.001920938491821289
0.0018825531005859375
0.0019047260284423828
0.001875162124633789
0.0018737316131591797
0.0018742084503173828
0.0018737316131591797
0.0018706321716308594
0.0019083023071289062
0.0018835067749023438
0.0019185543060302734
0.0018661022186279297
0.0018856525421142578
0.0019173622131347656
0.0018947124481201172
0.0019054412841796875
0.001893758773803711
0.0018720626831054688
0.0018727779388427734
0.0018687248229980469
0.0019190311431884766
0.0019145011901855469
0.0018858909606933594
0.0018711090087890625
0.0018699169158935547
0.0018932819366455078
0.0018672943115234375
0.0018630027770996094
0.0018694400787353516
0.0018618106842041016
0.0019118785858154297
0.0019178390502929688
0.0018906593322753906
0.0018849372863769531
0.0018644332885742188
0.001863241195678711
0.001870870590209961
0.0018601417541503906
0.0018930435180664062
0.0018715858459472656
0.0018720626831054688
0.0018711090087890625
0.0018727779388427734
0.0018796920776367188
0.0018885135650634766
0.0018625259399414062
0.0018656253814697266
0.0018627643585205078
0.0018663406372070312
0.0018627643585205078
0.0018625259399414062
0.001890420913696289
0.0018677711486816406
0.0018570423126220703
0.0019059181213378906
0.0018782615661621094
0.0019309520721435547
0.0018663406372070312
0.0018687248229980469
0.0018661022186279297
0.0018684864044189453
0.001865386962890625
0.0018703937530517578
0.0018661022186279297
0.00186920166015625
0.0018854141235351562
0.0018858909606933594
0.0018773078918457031
0.00189208984375
0.0018665790557861328
0.00186920166015625
0.0018613338470458984
0.0018739700317382812
0.0018990039825439453
0.0018928050994873047
0.0018661022186279297
0.0018668174743652344
0.0019044876098632812
0.0018780231475830078
0.0018808841705322266
0.0018684864044189453
0.0018570423126220703
0.0018651485443115234
0.0018703937530517578
0.0018644332885742188
0.0018584728240966797
0.0018656253814697266
0.0018525123596191406
0.001983165740966797
0.00189208984375
0.001911163330078125
0.001875162124633789
0.001875162124633789
0.0018911361694335938
0.0019211769104003906
0.0018973350524902344
0.0018799304962158203
0.0018661022186279297
0.0019097328186035156
0.0018749237060546875
0.0018873214721679688
0.0018849372863769531
0.0018954277038574219
0.0018932819366455078
0.0018739700317382812
0.001905679702758789
0.0019118785858154297
0.001878499984741211
0.0019044876098632812
0.00186920166015625
0.0018744468688964844
0.0018723011016845703
0.0018763542175292969
0.001971721649169922
0.0018718242645263672
0.0018718242645263672
0.0018835067749023438
0.0018706321716308594
0.0018723011016845703
0.0018715858459472656
0.0018711090087890625
0.0018665790557861328
0.0018649101257324219
0.0018796920776367188
0.001882791519165039
0.0018987655639648438
0.0018775463104248047
0.0018677711486816406
0.0018894672393798828
0.0018723011016845703
0.001871347427368164
0.0018677711486816406
0.0018689632415771484
0.0018672943115234375
0.0018880367279052734
0.0020074844360351562
0.0020246505737304688
0.0019185543060302734
0.001913309097290039
0.0018839836120605469
0.0019767284393310547
0.0019080638885498047
0.0018854141235351562
0.0018744468688964844
0.001882314682006836
0.0018944740295410156
0.0019617080688476562
0.0019083023071289062
0.001895904541015625
0.0019838809967041016
0.0018906593322753906
0.00196075439453125
0.0018973350524902344
0.0019834041595458984
0.0019359588623046875
0.0018982887268066406
0.0019252300262451172
0.0019452571868896484
0.0019876956939697266
0.0019371509552001953
0.0019159317016601562
0.0018858909606933594
0.0020792484283447266
0.0019199848175048828
0.0018939971923828125
0.001888275146484375
0.0019016265869140625
0.001880645751953125
0.0019152164459228516
0.0019485950469970703
0.001895904541015625
0.0018813610076904297
0.0018734931945800781
0.0018935203552246094
0.0018813610076904297
0.0018856525421142578
0.0018799304962158203
0.0018768310546875
0.0018877983093261719
0.0018727779388427734
0.0018932819366455078
0.0019390583038330078
0.0019421577453613281
0.0018734931945800781
0.0018718242645263672
0.0018742084503173828
0.0018680095672607422
0.0018694400787353516
0.0018963813781738281
0.0018720626831054688
0.00191497802734375
0.0018765926361083984
0.0018970966339111328
0.0018830299377441406
0.0018739700317382812
0.0018727779388427734
0.0018994808197021484
0.0018777847290039062
0.0018734931945800781
0.0018644332885742188
0.0019109249114990234
0.0018682479858398438
0.0018906593322753906
0.0018677711486816406
0.0018770694732666016
0.0019216537475585938
0.0018761157989501953
0.0019042491912841797
0.0018703937530517578
0.0018725395202636719
0.0019230842590332031
0.0018768310546875
0.0018711090087890625
0.0018723011016845703
0.0018889904022216797
0.0019099712371826172
0.0019059181213378906
0.0018737316131591797
0.0018966197967529297
0.0018792152404785156
0.0018765926361083984
0.0018739700317382812
0.0018818378448486328
0.0018677711486816406
0.0018734931945800781
0.0018689632415771484
0.0018873214721679688
0.001878976821899414
0.0018994808197021484
0.0018689632415771484
0.0019190311431884766
0.0019152164459228516
0.0018832683563232422
0.0018780231475830078
0.0018758773803710938
0.0018732547760009766
0.0019173622131347656
0.0018770694732666016
0.0018734931945800781
0.001870870590209961
0.001874685287475586
0.0018720626831054688
0.001880645751953125
0.0018658638000488281
0.0019156932830810547
0.0018835067749023438
0.0018813610076904297
0.0018780231475830078
0.00189971923828125
0.0018944740295410156
0.0018856525421142578
0.0018811225891113281
0.0018808841705322266
0.0018744468688964844
0.0018765926361083984
0.0018763542175292969
0.0018765926361083984
0.0018744468688964844
0.0021696090698242188
0.0025300979614257812
0.002103090286254883
0.0019600391387939453
0.0020492076873779297
0.001657247543334961
0.0016319751739501953
0.0016450881958007812
0.0016455650329589844
0.001619100570678711
0.0019037723541259766
0.0018877983093261719
0.0018830299377441406
0.001873016357421875
0.00189971923828125
0.0018892288208007812
0.001903533935546875
0.0019087791442871094
0.0018842220306396484
0.0018775463104248047
0.0019123554229736328
0.001874685287475586
0.0018913745880126953
0.0018811225891113281
0.0018885135650634766
0.0018987655639648438
0.0018775463104248047
0.0018885135650634766
0.001870870590209961
0.0018723011016845703
0.0018775463104248047
0.0018725395202636719
0.0018765926361083984
0.0018758773803710938
0.0018739700317382812
0.001901388168334961
0.0018739700317382812
0.00189208984375
0.0018739700317382812
0.0019121170043945312
0.0018763542175292969
0.001875162124633789
0.0018796920776367188
0.0018734931945800781
0.0018742084503173828
0.0018715858459472656
0.0018773078918457031
0.0018715858459472656
0.0018897056579589844
0.0018734931945800781
0.0019295215606689453
0.0018837451934814453
0.0018792152404785156
0.001871347427368164
0.0018758773803710938
0.0018720626831054688
0.0019083023071289062
0.0018794536590576172
0.0018925666809082031
0.001878976821899414
0.0018825531005859375
0.0019228458404541016
0.0019192695617675781
0.001874685287475586
0.001874685287475586
0.0018706321716308594
0.0018792152404785156
0.0018765926361083984
0.0018770694732666016
0.0019068717956542969
0.0018820762634277344
0.0018775463104248047
0.0018880367279052734
0.001895904541015625
0.0018780231475830078
0.0018863677978515625
0.0018868446350097656
0.0018796920776367188
0.001871347427368164
0.0018723011016845703
0.0019009113311767578
0.0018832683563232422
0.0018787384033203125
0.0018799304962158203
0.001886606216430664
0.0018913745880126953
0.0018749237060546875
0.0019097328186035156
0.001894235610961914
0.0018768310546875
0.0018820762634277344
0.0018703937530517578
0.0018775463104248047
0.0018794536590576172
0.0019757747650146484
0.0019526481628417969
0.0019330978393554688
0.0018892288208007812
0.0018908977508544922
0.001880645751953125
0.0018832683563232422
0.0019130706787109375
0.0019114017486572266
0.0018906593322753906
0.001882791519165039
0.0018804073333740234
0.0018811225891113281
0.0018880367279052734
0.001934051513671875
0.0018832683563232422
0.0018990039825439453
0.0018851757049560547
0.0018873214721679688
0.001886606216430664
0.001882314682006836
0.0018737316131591797
0.0018763542175292969
0.0018825531005859375
0.0018913745880126953
0.0018947124481201172
0.00189971923828125
0.0018808841705322266
0.0018875598907470703
0.0018839836120605469
0.0018768310546875
0.0018739700317382812
0.0018849372863769531
0.0018820762634277344
0.001889944076538086
0.001905679702758789
0.0018835067749023438
0.0018763542175292969
0.0018782615661621094
0.0019023418426513672
0.001878499984741211
0.0018787384033203125
0.0018754005432128906
0.0018727779388427734
0.0019116401672363281
0.0018846988677978516
0.001966238021850586
0.0019016265869140625
0.0019109249114990234
0.001878976821899414
0.0019228458404541016
0.0018742084503173828
0.0018770694732666016
0.0018780231475830078
0.0018804073333740234
0.0018815994262695312
0.0018799304962158203
0.001880645751953125
0.0019404888153076172
0.0018923282623291016
0.0020852088928222656
0.001928567886352539
0.0019073486328125
0.0018928050994873047
0.0018968582153320312
0.0018870830535888672
0.0019195079803466797
0.00671839714050293
0.0018851757049560547
0.0019016265869140625
0.0016131401062011719
0.0016362667083740234
0.0015425682067871094
0.0015995502471923828
0.0015382766723632812
0.00152587890625
0.0014922618865966797
0.0015265941619873047
0.0014770030975341797
0.0015249252319335938
0.0014789104461669922
0.0014700889587402344
0.00141143798828125
0.001461029052734375
0.0013973712921142578
0.0014984607696533203
0.0014908313751220703
0.0015320777893066406
0.001466512680053711
0.001524209976196289
0.0014655590057373047
0.0015308856964111328
0.0015172958374023438
0.0015454292297363281
0.0014946460723876953
0.0015196800231933594
0.0014712810516357422
0.0015256404876708984
0.001627206802368164
0.001552581787109375
0.0014963150024414062
0.0016281604766845703
0.0015804767608642578
0.0016160011291503906
0.0015659332275390625
0.0016169548034667969
0.0015788078308105469
0.0014781951904296875
0.0014090538024902344
0.00146484375
0.0014069080352783203
0.0014719963073730469
0.0014848709106445312
0.001527547836303711
0.0014977455139160156
0.0015323162078857422
0.0015039443969726562
0.0015726089477539062
0.0014955997467041016
0.001528024673461914
0.0014705657958984375
0.0015745162963867188
0.001478433609008789
0.001527547836303711
0.0014681816101074219
0.0015225410461425781
0.001461029052734375
0.0016210079193115234
0.0015707015991210938
0.0016117095947265625
0.0015406608581542969
0.001600503921508789
0.0015363693237304688
0.0014650821685791016
0.001402139663696289
0.0014617443084716797
0.0014388561248779297
0.0014789104461669922
0.0014986991882324219
0.0015349388122558594
0.0015065670013427734
0.0015246868133544922
0.00146484375
0.001531362533569336
0.0014650821685791016
0.001522064208984375
0.0014684200286865234
0.001561880111694336
0.0014750957489013672
0.001527547836303711
0.0014748573303222656
0.0015611648559570312
0.00146484375
0.0016112327575683594
0.0016133785247802734
0.0016243457794189453
0.0015606880187988281
0.0017004013061523438
0.0016388893127441406
0.0015170574188232422
0.0014243125915527344
0.001466989517211914
0.0014643669128417969
0.0014963150024414062
0.0014967918395996094
0.0015306472778320312
0.001491546630859375
0.0015308856964111328
0.001497030258178711
0.0015528202056884766
0.0014908313751220703
0.00153350830078125
0.0014767646789550781
0.0015494823455810547
0.0014889240264892578
0.0015461444854736328
0.0014672279357910156
0.001583099365234375
0.0014917850494384766
0.0016040802001953125
0.001566171646118164
0.0015642642974853516
0.0015594959259033203
0.001552581787109375
0.0014235973358154297
0.0014390945434570312
0.0014226436614990234
0.0013942718505859375
0.0013980865478515625
0.0015463829040527344
0.0015742778778076172
0.0015573501586914062
0.0015413761138916016
0.0015380382537841797
0.0016033649444580078
0.0014715194702148438
0.0015377998352050781
0.0015125274658203125
0.0014727115631103516
0.0014753341674804688
0.0020952224731445312
0.0020904541015625
0.0020847320556640625
0.002084016799926758
0.002183675765991211
0.00189971923828125
0.001886606216430664
0.0018939971923828125
0.0018901824951171875
0.001932382583618164
0.0018832683563232422
0.0018870830535888672
0.0018808841705322266
0.001882791519165039
0.0018973350524902344
0.0018913745880126953
0.0018911361694335938
0.0018868446350097656
0.0019001960754394531
0.001889944076538086
0.001911163330078125
0.0018868446350097656
0.0019073486328125
0.0019011497497558594
0.0018951892852783203
0.00189208984375
0.0019240379333496094
0.0018935203552246094
0.00188446044921875
0.0019309520721435547
0.0019369125366210938
0.0018918514251708984
0.0018908977508544922
0.0018830299377441406
0.001886606216430664
0.0018956661224365234
0.0018868446350097656
0.0019571781158447266
0.0018990039825439453
0.0018932819366455078
0.0019223690032958984
0.0018901824951171875
0.0019216537475585938
0.0018947124481201172
0.0019404888153076172
0.0019490718841552734
0.0019524097442626953
0.0019059181213378906
0.001999378204345703
0.0019190311431884766
0.002418994903564453
0.0019481182098388672
0.0019741058349609375
0.002013683319091797
0.0019347667694091797
0.001916646957397461
0.0019364356994628906
0.0019025802612304688
0.0019009113311767578
0.0019021034240722656
0.0018963813781738281
0.0019419193267822266
0.0019080638885498047
0.0018985271453857422
0.001941680908203125
0.001922607421875
0.0019805431365966797
0.0019063949584960938
0.0020112991333007812
0.001931905746459961
0.0019106864929199219
0.0019009113311767578
0.0018918514251708984
0.001886606216430664
0.0019104480743408203
0.0019040107727050781
0.0019085407257080078
0.001917123794555664
0.0018935203552246094
0.0018982887268066406
0.0018987655639648438
0.0022509098052978516
0.0021538734436035156
0.0019519329071044922
0.0019373893737792969
0.0019123554229736328
0.002020120620727539
0.0019583702087402344
0.0019192695617675781
0.0019342899322509766
0.001897573471069336
0.0019412040710449219
0.0019063949584960938
0.0018913745880126953
0.0019121170043945312
0.0018932819366455078
0.0018951892852783203
0.0018987655639648438
0.001918792724609375
0.0018990039825439453
0.0019159317016601562
0.0018918514251708984
0.0018990039825439453
0.0019006729125976562
0.0018954277038574219
0.0018968582153320312
0.0019402503967285156
0.0022025108337402344
0.0019965171813964844
0.001983165740966797
0.001955747604370117
0.002099275588989258
0.002026796340942383
0.0019528865814208984
0.001963376998901367
0.0019164085388183594
0.001978635787963867
0.001955270767211914
0.001912832260131836
0.0019087791442871094
0.0019037723541259766
0.001961946487426758
0.0019173622131347656
0.0019512176513671875
0.001905202865600586
0.0019066333770751953
0.001924276351928711
0.0019104480743408203
0.0019178390502929688
0.0019140243530273438
0.0019006729125976562
0.0019025802612304688
0.001898050308227539
0.0019180774688720703
0.00189971923828125
0.0019118785858154297
0.0019023418426513672
0.0018992424011230469
0.0019273757934570312
0.0018954277038574219
0.0018985271453857422
0.0018961429595947266
0.0018949508666992188
0.0019307136535644531
0.0019066333770751953
0.00189971923828125
0.002155780792236328
0.0019178390502929688
0.0019068717956542969
0.0019428730010986328
0.0019123554229736328
0.001926422119140625
0.0019028186798095703
0.0019063949584960938
0.0020253658294677734
0.0019099712371826172
0.0019576549530029297
0.0019123554229736328
0.0019462108612060547
0.0019063949584960938
0.001905679702758789
0.0018990039825439453
0.0019047260284423828
0.0018963813781738281
0.0019462108612060547
0.0019047260284423828
0.001909017562866211
0.0019068717956542969
0.0019061565399169922
0.001934051513671875
0.0019216537475585938
0.0019009113311767578
0.0019037723541259766
0.0018987655639648438
0.001903533935546875
0.0019023418426513672
0.002085447311401367
0.0019295215606689453
0.0019271373748779297
0.0019335746765136719
0.0019106864929199219
0.0019338130950927734
0.0019059181213378906
0.0019037723541259766
0.0019037723541259766
0.001905679702758789
0.0019829273223876953
0.0019202232360839844
0.0019063949584960938
0.0019059181213378906
0.001955270767211914
0.0019049644470214844
0.0019295215606689453
0.0018985271453857422
0.0019028186798095703
0.0019006729125976562
0.0019061565399169922
0.001909494400024414
0.001920461654663086
0.0019049644470214844
0.0019009113311767578
0.0019073486328125
0.0019428730010986328
0.0019083023071289062
0.0019135475158691406
0.0018947124481201172
0.001905679702758789
0.001953601837158203
0.001909494400024414
0.001903533935546875
0.001903533935546875
0.0019073486328125
0.0019044876098632812
0.0019135475158691406
0.0019176006317138672
0.0019330978393554688
0.0019092559814453125
0.0019037723541259766
0.0018963813781738281
0.0018973350524902344
0.0019063949584960938
0.0019104480743408203
0.0018963813781738281
0.00189971923828125
0.0019097328186035156
0.0019295215606689453
0.0019474029541015625
0.0019221305847167969
0.001912832260131836
0.0019142627716064453
0.0019276142120361328
0.0019376277923583984
0.0019102096557617188
0.003747224807739258
0.00212860107421875
0.0019750595092773438
0.0019652843475341797
0.0019953250885009766
0.0019533634185791016
0.0019207000732421875
0.0019218921661376953
0.0019142627716064453
0.0019266605377197266
0.0019140243530273438
0.0019099712371826172
0.0019123554229736328
0.0019121170043945312
0.0019142627716064453
0.0019521713256835938
0.0019085407257080078
0.0019495487213134766
0.0019199848175048828
0.0019404888153076172
0.0019180774688720703
0.001916646957397461
0.0019097328186035156
0.0019104480743408203
0.0019452571868896484
0.0019099712371826172
0.0019230842590332031
0.001909017562866211
0.0019338130950927734
0.0018982887268066406
0.001932382583618164
0.0019142627716064453
0.001912832260131836
0.0019071102142333984
0.0019502639770507812
0.0019202232360839844
0.0019130706787109375
0.0019385814666748047
0.0019197463989257812
0.0019402503967285156
0.002025604248046875
0.0019381046295166016
0.0019078254699707031
0.001897573471069336
0.0019049644470214844
0.0019466876983642578
0.0019137859344482422
0.001905202865600586
0.0019066333770751953
0.0019626617431640625
0.0020029544830322266
0.0019459724426269531
0.0019092559814453125
0.0019075870513916016
0.0019078254699707031
0.0019042491912841797
0.0019087791442871094
0.0019061565399169922
0.0019011497497558594
0.0019071102142333984
0.0019214153289794922
0.0019087791442871094
0.0019180774688720703
0.0019087791442871094
0.0019550323486328125
0.0019092559814453125
0.0019087791442871094
0.0019114017486572266
0.0019109249114990234
0.0019173622131347656
0.0019097328186035156
0.0019435882568359375
0.0019197463989257812
0.0019156932830810547
0.0019288063049316406
0.001911163330078125
0.0019450187683105469
0.0019085407257080078
0.001905679702758789
0.0019032955169677734
0.0019068717956542969
0.001916646957397461
0.001949310302734375
0.001917123794555664
0.0019176006317138672
0.0019376277923583984
0.0019037723541259766
0.0019123554229736328
0.0019073486328125
0.0019154548645019531
0.0019040107727050781
0.001903533935546875
0.0019140243530273438
0.0019180774688720703
0.0019578933715820312
0.0019378662109375
0.0019481182098388672
0.0019829273223876953
0.0020012855529785156
0.0020530223846435547
0.0019707679748535156
0.0019648075103759766
0.001978635787963867
0.0019354820251464844
0.0019147396087646484
0.001916646957397461
0.001917123794555664
0.002138853073120117
0.0020051002502441406
0.0019423961639404297
0.0019254684448242188
0.0019142627716064453
0.0019156932830810547
0.001964092254638672
0.0019240379333496094
0.0019207000732421875
0.001951456069946289
0.0019381046295166016
0.002034425735473633
0.00197601318359375
0.001978635787963867
0.0019826889038085938
0.0019497871398925781
0.0019333362579345703
0.0019998550415039062
0.001947164535522461
0.001943826675415039
0.0019268989562988281
0.002074003219604492
0.0019712448120117188
0.001928567886352539
0.002012014389038086
0.001953601837158203
0.0019237995147705078
0.0019376277923583984
0.0019230842590332031
0.0019135475158691406
0.0019383430480957031
0.0019252300262451172
0.0019295215606689453
0.0019161701202392578
0.001941680908203125
0.0019371509552001953
0.0019488334655761719
0.0019233226776123047
0.0019240379333496094
0.001916646957397461
0.0019197463989257812
0.0019156932830810547
0.0019199848175048828
0.001913309097290039
0.0019168853759765625
0.0019228458404541016
0.0019347667694091797
0.0020139217376708984
0.0019252300262451172
0.0019207000732421875
0.0019102096557617188
0.001916646957397461
0.0019605159759521484
0.0019183158874511719
0.0019407272338867188
0.0019230842590332031
0.0020132064819335938
0.001970052719116211
0.0019214153289794922
0.0019960403442382812
0.0019986629486083984
0.0019383430480957031
0.0019216537475585938
0.001926422119140625
0.0019197463989257812
0.0019373893737792969
0.0019376277923583984
0.0019183158874511719
0.0019626617431640625
0.0019266605377197266
0.001971721649169922
0.0019197463989257812
0.0019116401672363281
0.0019359588623046875
0.0019237995147705078
0.0019102096557617188
0.0019176006317138672
0.0019752979278564453
0.0019791126251220703
0.001922607421875
0.001962900161743164
0.0020110607147216797
0.0019278526306152344
0.001922607421875
0.001926422119140625
0.0019145011901855469
0.001912832260131836
0.0019106864929199219
0.0019154548645019531
0.0019333362579345703
0.0019123554229736328
0.0019366741180419922
0.0019190311431884766
0.0019330978393554688
0.0019197463989257812
0.0019156932830810547
0.0019159317016601562
0.0019092559814453125
0.0019485950469970703
0.0019276142120361328
0.0019197463989257812
0.0019481182098388672
0.00196075439453125
0.001950979232788086
0.0019643306732177734
0.0019159317016601562
0.001983642578125
0.0019724369049072266
0.001924753189086914
0.0019223690032958984
0.0019164085388183594
0.0019159317016601562
0.0019519329071044922
0.0019414424896240234
0.0019731521606445312
0.002269744873046875
0.0026357173919677734
0.002130270004272461
0.0020287036895751953
0.0020589828491210938
0.0018188953399658203
0.0017981529235839844
0.0017955303192138672
0.0017840862274169922
0.0018486976623535156
0.0019807815551757812
0.0019412040710449219
0.0019426345825195312
0.0019278526306152344
0.0019195079803466797
0.0019326210021972656
0.001995086669921875
0.0019385814666748047
0.0019273757934570312
0.0019314289093017578
0.0019354820251464844
0.0019268989562988281
0.002023458480834961
0.001947164535522461
0.0019652843475341797
0.001931905746459961
0.0019195079803466797
0.0019423961639404297
0.0019290447235107422
0.0019307136535644531
0.0019626617431640625
0.0019271373748779297
0.0019223690032958984
0.0019381046295166016
0.001924753189086914
0.0020072460174560547
0.0019185543060302734
0.0019214153289794922
0.0019147396087646484
0.0019164085388183594
0.0019130706787109375
0.0019910335540771484
0.0019259452819824219
0.001924753189086914
0.0019228458404541016
0.0019345283508300781
0.0019283294677734375
0.0019440650939941406
0.001916646957397461
0.0019147396087646484
0.0019176006317138672
0.0019521713256835938
0.001981019973754883
0.0019397735595703125
0.001932382583618164
0.00194549560546875
0.0016875267028808594
0.0016918182373046875
0.0016689300537109375
0.0016739368438720703
0.0016551017761230469
0.0016968250274658203
0.0015115737915039062
0.0014929771423339844
0.0014998912811279297
0.001489877700805664
0.0015859603881835938
0.00159454345703125
0.0015769004821777344
0.0015757083892822266
0.0016055107116699219
0.00164031982421875
0.0015158653259277344
0.0017518997192382812
0.0015664100646972656
0.0015397071838378906
0.001522064208984375
0.0015146732330322266
0.001524209976196289
0.0015292167663574219
0.0015344619750976562
0.0015287399291992188
0.0015976428985595703
0.0015156269073486328
0.001527547836303711
0.0015065670013427734
0.0014944076538085938
0.0015146732330322266
0.0014905929565429688
0.0014939308166503906
0.0015115737915039062
0.00156402587890625
0.0016090869903564453
0.0016214847564697266
0.001577615737915039
0.0015723705291748047
0.001573801040649414
0.0015382766723632812
0.0015454292297363281
0.0015072822570800781
0.0015096664428710938
0.001497507095336914
0.0016117095947265625
0.0016126632690429688
0.0016100406646728516
0.0015697479248046875
0.0015659332275390625
0.0016579627990722656
0.0015232563018798828
0.0015146732330322266
0.0015099048614501953
0.0014960765838623047
0.0015742778778076172
0.0015909671783447266
0.0015995502471923828
0.0015859603881835938
0.0016660690307617188
0.0016548633575439453
0.001524209976196289
0.001497507095336914
0.0014986991882324219
0.0014891624450683594
0.0015673637390136719
0.0015838146209716797
0.0015735626220703125
0.0015673637390136719
0.0015888214111328125
0.0016796588897705078
0.001500844955444336
0.0014910697937011719
0.00150299072265625
0.001499176025390625
0.0015027523040771484
0.0015943050384521484
0.0015690326690673828
0.0015687942504882812
0.0015597343444824219
0.001657724380493164
0.0015461444854736328
0.0015518665313720703
0.0015137195587158203
0.0015468597412109375
0.0015485286712646484
0.0016007423400878906
0.0015723705291748047
0.0015773773193359375
0.0015730857849121094
0.0015723705291748047
0.0015292167663574219
0.0015211105346679688
0.0015397071838378906
0.0014955997467041016
0.0015063285827636719
0.0015189647674560547
0.0015149116516113281
0.0015103816986083984
0.0016400814056396484
0.0015339851379394531
0.0016047954559326172
0.0016107559204101562
0.0016007423400878906
0.0016069412231445312
0.001596689224243164
0.0015749931335449219
0.0015687942504882812
0.001573801040649414
0.0016210079193115234
0.0015857219696044922
0.0016438961029052734
0.0015070438385009766
0.0014917850494384766
0.0014986991882324219
0.001562356948852539
0.0015516281127929688
0.0015010833740234375
0.0015017986297607422
0.0014903545379638672
0.0014934539794921875
0.0015645027160644531
0.001680612564086914
0.0015845298767089844
0.0028429031372070312
0.0017170906066894531
0.0017366409301757812
0.0019240379333496094
0.0019502639770507812
0.0018374919891357422
0.0018262863159179688
0.0019290447235107422
0.002033233642578125
0.002043485641479492
0.0020394325256347656
0.0019850730895996094
0.0019686222076416016
0.001634359359741211
0.0016393661499023438
0.001631021499633789
0.0016057491302490234
0.0015857219696044922
0.0022432804107666016
0.0021593570709228516
0.0021479129791259766
0.0022630691528320312
0.0022125244140625
0.0022194385528564453
0.001974344253540039
0.001959085464477539
0.0019605159759521484
0.0019376277923583984
0.0020401477813720703
0.0019483566284179688
0.0019452571868896484
0.0019273757934570312
0.001932382583618164
0.001928091049194336
0.002249479293823242
0.0022177696228027344
0.002232074737548828
0.002221822738647461
0.002228260040283203
0.001718759536743164
0.0017120838165283203
0.0016751289367675781
0.0016694068908691406
0.001683950424194336
0.001934051513671875
0.002168416976928711
0.0021440982818603516
0.002161264419555664
0.002162456512451172
0.0022106170654296875
0.0019452571868896484
0.001972198486328125
0.0019412040710449219
0.0019314289093017578
0.00200653076171875
0.0019540786743164062
0.0019390583038330078
0.0019268989562988281
0.001926422119140625
0.0019505023956298828
0.002003192901611328
0.0019779205322265625
0.0019648075103759766
0.0019397735595703125
0.0019252300262451172
0.0019452571868896484
0.001936197280883789
0.0019350051879882812
0.0019259452819824219
0.0019266605377197266
0.0020983219146728516
0.0020875930786132812
0.002037525177001953
0.0019834041595458984
0.001947641372680664
0.0019600391387939453
0.001957416534423828
0.0019352436065673828
0.0019528865814208984
0.0019397735595703125
0.0019359588623046875
0.0020101070404052734
0.002003908157348633
0.0019526481628417969
0.0019426345825195312
0.001977205276489258
0.0019578933715820312
0.0019474029541015625
0.0019414424896240234
0.0019922256469726562
0.001971721649169922
0.0025641918182373047
0.0019729137420654297
0.0020017623901367188
0.001992940902709961
0.0020155906677246094
0.002007007598876953
0.0019669532775878906
0.001959562301635742
0.001955747604370117
0.001943826675415039
0.0019381046295166016
0.00196075439453125
0.002007007598876953
0.001977682113647461
0.0019762516021728516
0.001977205276489258
0.001976490020751953
0.0019826889038085938
0.001956939697265625
0.002012491226196289
0.00199127197265625
0.0019631385803222656
0.0019469261169433594
0.001959562301635742
0.0019373893737792969
0.0019502639770507812
0.001955747604370117
0.0019702911376953125
0.001972198486328125
0.0019452571868896484
0.0019469261169433594
0.0019526481628417969
0.0019345283508300781
0.001932382583618164
0.0019330978393554688
0.0019311904907226562
0.0019817352294921875
0.001982450485229492
0.0019478797912597656
0.0020322799682617188
0.0019750595092773438
0.0019991397857666016
0.0019588470458984375
0.0019528865814208984
0.0019762516021728516
0.0019481182098388672
0.0020017623901367188
0.0019347667694091797
0.0019555091857910156
0.001939535140991211
0.00199127197265625
0.0019376277923583984
0.0019571781158447266
0.0019409656524658203
0.001947164535522461
0.0019469261169433594
0.001934051513671875
0.0019435882568359375
0.0019309520721435547
0.0019342899322509766
0.0020258426666259766
0.0019598007202148438
0.0020232200622558594
0.001943349838256836
0.0019714832305908203
0.0019326210021972656
0.00193023681640625
0.0019822120666503906
0.001936197280883789
0.0019762516021728516
0.0019538402557373047
0.001957416534423828
0.0019979476928710938
0.0019655227661132812
0.0019328594207763672
0.001961231231689453
0.001935720443725586
0.0019288063049316406
0.0019435882568359375
0.001928091049194336
0.001958131790161133
0.0019414424896240234
0.0019350051879882812
0.001985311508178711
0.001936197280883789
0.0019881725311279297
0.0019850730895996094
0.001970052719116211
0.001966714859008789
0.0019466876983642578
0.0019369125366210938
0.0019404888153076172
0.0019352436065673828
0.001943349838256836
0.001986265182495117
0.001983642578125
0.0020194053649902344
0.0019450187683105469
0.0019795894622802734
0.0023958683013916016
0.002218484878540039
0.0018305778503417969
0.0018291473388671875
0.0019049644470214844
0.001708984375
0.001657724380493164
0.0017018318176269531
0.0016717910766601562
0.0016515254974365234
0.001756429672241211
0.002019166946411133
0.0019769668579101562
0.0019516944885253906
0.0019676685333251953
0.0019588470458984375
0.0017898082733154297
0.00177764892578125
0.0017817020416259766
0.0017919540405273438
0.0018763542175292969
0.0017826557159423828
0.0017881393432617188
0.0017728805541992188
0.0017783641815185547
0.0018622875213623047
0.001970052719116211
0.0019440650939941406
0.0019981861114501953
0.0019752979278564453
0.0021042823791503906
0.001806497573852539
0.001786947250366211
0.0017833709716796875
0.0017690658569335938
0.0019769668579101562
0.0018053054809570312
0.0017957687377929688
0.0017991065979003906
0.0017817020416259766
0.0018796920776367188
0.002020597457885742
0.001960277557373047
0.001974344253540039
0.001941680908203125
0.0021126270294189453
0.0018095970153808594
0.00177764892578125
0.001781463623046875
0.001760721206665039
0.001766204833984375
0.001956462860107422
0.0019762516021728516
0.0019555091857910156
0.0019996166229248047
0.0019457340240478516
0.0019507408142089844
0.0017783641815185547
0.0017695426940917969
0.0018529891967773438
0.0017876625061035156
0.0018596649169921875
0.001961946487426758
0.0019462108612060547
0.001959562301635742
0.0019655227661132812
0.002056121826171875
0.0017805099487304688
0.001766204833984375
0.0017604827880859375
0.0018095970153808594
0.0018777847290039062
0.001811981201171875
0.0017693042755126953
0.0017762184143066406
0.0017671585083007812
0.0018134117126464844
0.0018601417541503906
0.001959562301635742
0.0019371509552001953
0.0019943714141845703
0.0019519329071044922
0.0019969940185546875
0.0017833709716796875
0.0017693042755126953
0.0017633438110351562
0.001771688461303711
0.0018646717071533203
0.0020024776458740234
0.001976490020751953
0.0019555091857910156
0.0019414424896240234
0.002092123031616211
0.0017859935760498047
0.0017669200897216797
0.0018100738525390625
0.0019307136535644531
0.0020225048065185547
0.0019512176513671875
0.0019388198852539062
0.0019731521606445312
0.0019876956939697266
0.0019423961639404297
0.00193023681640625
0.0019431114196777344
0.0019328594207763672
0.0019381046295166016
0.001936197280883789
0.0019292831420898438
0.0019583702087402344
0.001981019973754883
0.001971721649169922
0.0019659996032714844
0.001979351043701172
0.0019483566284179688
0.001954317092895508
0.001955747604370117
0.001951456069946289
0.0019881725311279297
0.0019421577453613281
0.0020265579223632812
0.0019741058349609375
0.0019609928131103516
0.002025604248046875
0.0019516944885253906
0.0019490718841552734
0.0019445419311523438
0.0019428730010986328
0.001951456069946289
0.0019576549530029297
0.00194549560546875
0.002117156982421875
0.002003908157348633
0.0020034313201904297
0.0019800662994384766
0.001989126205444336
0.0019545555114746094
0.0019428730010986328
0.0019698143005371094
0.0019676685333251953
0.0019490718841552734
0.001966714859008789
0.0019519329071044922
0.001947164535522461
0.0019598007202148438
0.0020453929901123047
0.002002239227294922
0.001960277557373047
0.0019464492797851562
0.0019903182983398438
0.0019562244415283203
0.001947641372680664
0.0019593238830566406
0.0019507408142089844
0.0019614696502685547
0.0019524097442626953
0.0019960403442382812
0.0019598007202148438
0.0019791126251220703
0.0019390583038330078
0.0019516944885253906
0.002151012420654297
0.001966714859008789
0.001956462860107422
0.0019524097442626953
0.001955270767211914
0.0019500255584716797
0.002005338668823242
0.001973390579223633
0.001975536346435547
0.002031087875366211
0.001966238021850586
0.001947641372680664
0.0019495487213134766
0.0019485950469970703
0.0019903182983398438
0.0019652843475341797
0.001956462860107422
0.0019488334655761719
0.0019893646240234375
0.0019648075103759766
0.0019681453704833984
0.001954793930053711
0.0019450187683105469
0.0019712448120117188
0.0019462108612060547
0.0019550323486328125
0.0019364356994628906
0.0019714832305908203
0.001954317092895508
0.0019788742065429688
0.0019707679748535156
0.0020599365234375
0.001966714859008789
0.0019519329071044922
0.002007007598876953
0.0019750595092773438
0.001966238021850586
0.0019533634185791016
0.0019478797912597656
0.0019505023956298828
0.0020051002502441406
0.001988649368286133
0.0019702911376953125
0.0019860267639160156
0.001953601837158203
0.001992464065551758
0.0019483566284179688
0.0019457340240478516
0.001941680908203125
0.0019450187683105469
0.0019478797912597656
0.0019516944885253906
0.001960277557373047
0.0019588470458984375
0.001981496810913086
0.0019526481628417969
0.0019578933715820312
0.0019617080688476562
0.0019845962524414062
0.002020597457885742
0.001965045928955078
0.0020148754119873047
0.001959562301635742
0.001979827880859375
0.001960277557373047
0.0020034313201904297
0.0019588470458984375
0.0019562244415283203
0.001947164535522461
0.001955747604370117
0.0019474029541015625
0.0020008087158203125
0.001959562301635742
0.001947641372680664
0.0019483566284179688
0.001987457275390625
0.001965045928955078
0.0020110607147216797
0.001950979232788086
0.0019817352294921875
0.001955270767211914
0.0019550323486328125
0.0019593238830566406
0.0019495487213134766
0.0020143985748291016
0.0019724369049072266
0.0019996166229248047
0.001967191696166992
0.001987457275390625
0.0019545555114746094
0.002089977264404297
0.0021331310272216797
0.0020105838775634766
0.001995563507080078
0.001967906951904297
0.002019643783569336
0.0019795894622802734
0.0019750595092773438
0.0019736289978027344
0.00197601318359375
0.002013683319091797
0.0020003318786621094
0.0020093917846679688
0.0019779205322265625
0.001956939697265625
0.001955270767211914
0.0019600391387939453
0.001954317092895508
0.0019638538360595703
0.0020825862884521484
0.001994609832763672
0.0020329952239990234
0.001990079879760742
0.001995086669921875
0.0019741058349609375
0.001980304718017578
0.001964569091796875
0.001961946487426758
0.0019636154174804688
0.001982450485229492
0.0019526481628417969
0.0020723342895507812
0.001981973648071289
0.0020301342010498047
0.002128124237060547
0.0020089149475097656
0.001994609832763672
0.0020117759704589844
0.002033710479736328
0.0019927024841308594
0.0019707679748535156
0.001978158950805664
0.0019807815551757812
0.0019757747650146484
0.0020694732666015625
0.0019872188568115234
0.0019683837890625
0.002008199691772461
0.0019600391387939453
0.0019762516021728516
0.0019559860229492188
0.001958608627319336
0.0019652843475341797
0.001967191696166992
0.0020318031311035156
0.0019845962524414062
0.0019769668579101562
0.001970052719116211
0.0019609928131103516
0.0019986629486083984
0.001970529556274414
0.002017498016357422
0.0019583702087402344
0.002003192901611328
0.002030611038208008
0.0020096302032470703
0.001968860626220703
0.001990079879760742
0.0019538402557373047
0.002041339874267578
0.001992464065551758
0.001972198486328125
0.001964569091796875
0.0019636154174804688
0.001965761184692383
0.0015423297882080078
0.0015282630920410156
0.0015270709991455078
0.0015277862548828125
0.0015606880187988281
0.0016102790832519531
0.0016052722930908203
0.0016186237335205078
0.0016112327575683594
0.0015909671783447266
0.0017080307006835938
0.001547098159790039
0.0015437602996826172
0.001522064208984375
0.0015685558319091797
0.001634359359741211
0.0016705989837646484
0.0016090869903564453
0.001603841781616211
0.0016622543334960938
0.0016756057739257812
0.0015592575073242188
0.0015480518341064453
0.0015292167663574219
0.0015270709991455078
0.0015232563018798828
0.0015530586242675781
0.001554727554321289
0.0015342235565185547
0.00153350830078125
0.0015327930450439453
0.0016222000122070312
0.0016090869903564453
0.001626729965209961
0.001626729965209961
0.0016150474548339844
0.0016813278198242188
0.0015652179718017578
0.0015616416931152344
0.0015263557434082031
0.0015234947204589844
0.0015976428985595703
0.0016169548034667969
0.00160980224609375
0.0016617774963378906
0.0016231536865234375
0.0016546249389648438
0.0015537738800048828
0.0018444061279296875
0.0017647743225097656
0.0016357898712158203
0.0015711784362792969
0.0017657279968261719
0.001714944839477539
0.0017459392547607422
0.0017116069793701172
0.0017189979553222656
0.0017290115356445312
0.001634359359741211
0.0015430450439453125
0.0015707015991210938
0.001561880111694336
0.0015673637390136719
0.0015347003936767578
0.001539468765258789
0.0015175342559814453
0.0015532970428466797
0.0016045570373535156
0.001628875732421875
0.0016698837280273438
0.0016207695007324219
0.001611471176147461
0.001653909683227539
0.0015652179718017578
0.0015342235565185547
0.0015168190002441406
0.0015861988067626953
0.001535654067993164
0.0016427040100097656
0.001607656478881836
0.001607656478881836
0.0015954971313476562
0.0016033649444580078
0.0015649795532226562
0.0015692710876464844
0.0015170574188232422
0.0015339851379394531
0.00151824951171875
0.001714468002319336
0.0016984939575195312
0.0017025470733642578
0.00170135498046875
0.001691579818725586
0.0017192363739013672
0.0016109943389892578
0.0015802383422851562
0.0015573501586914062
0.001523733139038086
0.0015332698822021484
0.001516580581665039
0.0015225410461425781
0.0015196800231933594
0.0018317699432373047
0.001842498779296875
0.0016829967498779297
0.001657247543334961
0.0017004013061523438
0.0016810894012451172
0.0016829967498779297
0.0016314983367919922
0.0016176700592041016
0.0016105175018310547
0.0016324520111083984
0.0016093254089355469
0.0015628337860107422
0.0015342235565185547
0.0015399456024169922
0.0015537738800048828
0.0015783309936523438
0.0016384124755859375
0.0015506744384765625
0.0015499591827392578
0.0015475749969482422
0.0015377998352050781
0.0016329288482666016
0.001621246337890625
0.0016145706176757812
0.0016052722930908203
0.0016183853149414062
0.0018393993377685547
0.002018451690673828
0.0019898414611816406
0.0019998550415039062
0.0019779205322265625
0.001981973648071289
0.0019769668579101562
0.002045154571533203
0.001990795135498047
0.0020074844360351562
0.0019903182983398438
0.001987934112548828
0.0020093917846679688
0.001977682113647461
0.0020046234130859375
0.002050638198852539
0.001984834671020508
0.0019936561584472656
0.0020232200622558594
0.001987457275390625
0.0020101070404052734
0.0019922256469726562
0.0019996166229248047
0.0019860267639160156
0.0019936561584472656
0.0019741058349609375
0.0019805431365966797
0.0019690990447998047
0.0019614696502685547
0.001971721649169922
0.0019702911376953125
0.001985788345336914
0.001971006393432617
0.0020308494567871094
0.001988649368286133
0.0020177364349365234
0.0020270347595214844
0.0020258426666259766
0.0019757747650146484
0.001981973648071289
0.0020432472229003906
0.0020055770874023438
0.0019910335540771484
0.001993417739868164
0.001979827880859375
0.0019943714141845703
0.00200653076171875
0.002038240432739258
0.001982450485229492
0.0019996166229248047
0.002015352249145508
0.0019910335540771484
0.0020084381103515625
0.001984119415283203
0.001979827880859375
0.001966238021850586
0.0019817352294921875
0.0019931793212890625
0.0020117759704589844
0.0019729137420654297
0.0019707679748535156
0.0019965171813964844
0.001978158950805664
0.0019888877868652344
0.001977682113647461
0.0020437240600585938
0.001983642578125
0.0020356178283691406
0.0020143985748291016
0.002006053924560547
0.00202178955078125
0.001981973648071289
0.0019745826721191406
0.001981973648071289
0.0019791126251220703
0.0019745826721191406
0.001974344253540039
0.0019919872283935547
0.0020148754119873047
0.0019974708557128906
0.0021886825561523438
0.002084493637084961
0.0019979476928710938
0.0020089149475097656
0.001986980438232422
0.0019888877868652344
0.0019829273223876953
0.0019822120666503906
0.0019800662994384766
0.0019922256469726562
0.0020685195922851562
0.0020318031311035156
0.0019843578338623047
0.002053976058959961
0.002022981643676758
0.0019834041595458984
0.0019752979278564453
0.0020411014556884766
0.0019769668579101562
0.002024412155151367
0.001985788345336914
0.001979351043701172
0.0019898414611816406
0.0019872188568115234
0.002046823501586914
0.001974821090698242
0.0019719600677490234
0.0019791126251220703
0.001972198486328125
0.0019736289978027344
0.0019707679748535156
0.0019807815551757812
0.001970052719116211
0.0019845962524414062
0.001990795135498047
0.002086162567138672
0.0020151138305664062
0.001985788345336914
0.0019774436950683594
0.0019779205322265625
0.0019888877868652344
0.001981019973754883
0.001972675323486328
0.0019707679748535156
0.001970529556274414
0.0019998550415039062
0.0019838809967041016
0.002076387405395508
0.0019881725311279297
0.0019829273223876953
0.002018451690673828
0.001976490020751953
0.0019767284393310547
0.001978635787963867
0.0019698143005371094
0.0020122528076171875
0.0020203590393066406
0.0020132064819335938
0.0019969940185546875
0.001999378204345703
0.0022954940795898438
0.002048969268798828
0.0020456314086914062
0.002007007598876953
0.0020034313201904297
0.0021538734436035156
0.0020189285278320312
0.0020051002502441406
0.002022266387939453
0.0020148754119873047
0.002023935317993164
0.0019860267639160156
0.0019769668579101562
0.0019729137420654297
0.001978158950805664
0.0019893646240234375
0.0020127296447753906
0.0020508766174316406
0.0019884109497070312
0.0019958019256591797
0.0019948482513427734
0.0020127296447753906
0.001981019973754883
0.0019867420196533203
0.0019750595092773438
0.0020656585693359375
0.0019960403442382812
0.001997232437133789
0.001981496810913086
0.002122640609741211
0.0021262168884277344
0.0020668506622314453
0.0020837783813476562
0.0020482540130615234
0.0019903182983398438
0.002036571502685547
0.0019910335540771484
0.0020008087158203125
0.0019855499267578125
0.0020112991333007812
0.0020117759704589844
0.0020334720611572266
0.0020437240600585938
0.0020034313201904297
0.0020105838775634766
0.0019915103912353516
0.001984834671020508
0.0020809173583984375
0.002013683319091797
0.0019948482513427734
0.0020761489868164062
0.0020148754119873047
0.0020143985748291016
0.002020597457885742
0.002034902572631836
0.0020258426666259766
0.0020220279693603516
0.0020067691802978516
0.0019974708557128906
0.002000093460083008
0.0019865036010742188
0.001977205276489258
0.002002716064453125
0.0020439624786376953
0.001996755599975586
0.002011537551879883
0.0019788742065429688
0.002019643783569336
0.002003908157348633
0.0020132064819335938
0.0020110607147216797
0.0020041465759277344
0.0019867420196533203
0.002035856246948242
0.0019881725311279297
0.0020503997802734375
0.001989126205444336
0.0021016597747802734
0.0020029544830322266
0.0020236968994140625
0.002026796340942383
0.0019991397857666016
0.001989603042602539
0.0019881725311279297
0.001986265182495117
0.001992464065551758
0.001978635787963867
0.0019872188568115234
0.0019943714141845703
0.0019936561584472656
0.0020170211791992188
0.0019807815551757812
0.001984834671020508
0.0020003318786621094
0.002015829086303711
0.0019919872283935547
0.001989603042602539
0.0019881725311279297
0.0019812583923339844
0.0020313262939453125
0.0020914077758789062
0.0020360946655273438
0.0020215511322021484
0.0020096302032470703
0.001985788345336914
0.002005338668823242
0.0019915103912353516
0.002062082290649414
0.002005338668823242
0.0021393299102783203
0.0020248889923095703
0.0020287036895751953
0.0020017623901367188
0.0020329952239990234
0.001990795135498047
0.0019979476928710938
0.002078533172607422
0.002017498016357422
0.002008199691772461
0.0019979476928710938
0.0020041465759277344
0.001987934112548828
0.0019807815551757812
0.0020279884338378906
0.0020072460174560547
0.002106904983520508
0.0020074844360351562
0.0020012855529785156
0.001992464065551758
0.001999378204345703
0.0020253658294677734
0.001996755599975586
0.0020411014556884766
0.002010345458984375
0.0020074844360351562
0.0020570755004882812
0.002026796340942383
0.0020503997802734375
0.0020020008087158203
0.0020258426666259766
0.0020647048950195312
0.002010345458984375
0.0020389556884765625
0.0020198822021484375
0.0019960403442382812
0.0020074844360351562
0.0020439624786376953
0.0020189285278320312
0.0020296573638916016
0.0019991397857666016
0.002057313919067383
0.002015829086303711
0.0020079612731933594
0.002257823944091797
0.002378702163696289
0.002183198928833008
0.0017843246459960938
0.0017483234405517578
0.0017774105072021484
0.0017974376678466797
0.0017485618591308594
0.0020525455474853516
0.002006053924560547
0.0020079612731933594
0.0020363330841064453
0.0020151138305664062
0.0020089149475097656
0.0020818710327148438
0.0020487308502197266
0.002035856246948242
0.0020148754119873047
0.002008676528930664
0.0019965171813964844
0.0020008087158203125
0.00199127197265625
0.0020647048950195312
0.0020139217376708984
0.002004861831665039
0.0019998550415039062
0.0020034313201904297
0.0020189285278320312
0.002039670944213867
0.0020275115966796875
0.0019998550415039062
0.002007007598876953
0.0019905567169189453
0.0020258426666259766
0.002015829086303711
0.00200653076171875
0.0019958019256591797
0.0021550655364990234
0.0021152496337890625
0.0020318031311035156
0.0020596981048583984
0.002023935317993164
0.002010345458984375
0.001998424530029297
0.002071380615234375
0.002004861831665039
0.0020041465759277344
0.002059459686279297
0.002011537551879883
0.0020155906677246094
0.002022981643676758
0.0020055770874023438
0.002071380615234375
0.002008676528930664
0.0020513534545898438
0.002003192901611328
0.0020232200622558594
0.0019960403442382812
0.0019991397857666016
0.0020301342010498047
0.002029895782470703
0.0020046234130859375
0.002002716064453125
0.0020291805267333984
0.0020368099212646484
0.001995563507080078
0.0019931793212890625
0.002000570297241211
0.001992464065551758
0.002035856246948242
0.0019958019256591797
0.0019986629486083984
0.002051115036010742
0.0020189285278320312
0.002073526382446289
0.0020470619201660156
0.0019974708557128906
0.0019919872283935547
0.001992464065551758
0.0020008087158203125
0.0020139217376708984
0.0020008087158203125
0.002000093460083008
0.0019958019256591797
0.002003908157348633
0.0020134449005126953
0.0020151138305664062
0.001995563507080078
0.0020008087158203125
0.0019974708557128906
0.002057790756225586
0.002001523971557617
0.0019981861114501953
0.0019905567169189453
0.0019979476928710938
0.0020368099212646484
0.0020525455474853516
0.002100706100463867
0.002022266387939453
0.001998424530029297
0.002028226852416992
0.0020008087158203125
0.0019915103912353516
0.0019898414611816406
0.0020716190338134766
0.0020072460174560547
0.002052783966064453
0.0020110607147216797
0.0020029544830322266
0.0020287036895751953
0.0019943714141845703
0.002000570297241211
0.002027273178100586
0.0019998550415039062
0.001989603042602539
0.0020318031311035156
0.002003192901611328
0.0019965171813964844
0.0019881725311279297
0.0020117759704589844
0.0020058155059814453
0.0020465850830078125
0.0020685195922851562
0.0020101070404052734
0.0020029544830322266
0.00199127197265625
0.002035379409790039
0.0020017623901367188
0.001983165740966797
0.001987457275390625
0.002001523971557617
0.002001523971557617
0.002076387405395508
0.0020112991333007812
0.0020554065704345703
0.0020101070404052734
0.001992464065551758
0.0019998550415039062
0.0020041465759277344
0.0019943714141845703
0.0020093917846679688
0.0019996166229248047
0.0020465850830078125
0.0020084381103515625
0.002024412155151367
0.0020029544830322266
0.0019876956939697266
0.0020983219146728516
0.0020151138305664062
0.0020008087158203125
0.0019927024841308594
0.001994609832763672
0.0020356178283691406
0.0020101070404052734
0.0020177364349365234
0.0020241737365722656
0.00202178955078125
0.002002239227294922
0.0020112991333007812
0.002001523971557617
0.0019948482513427734
0.0019974708557128906
0.0019948482513427734
0.0020067691802978516
0.002214193344116211
0.0020608901977539062
0.002015829086303711
0.0020477771759033203
0.001996755599975586
0.0019936561584472656
0.0019979476928710938
0.0019958019256591797
0.0022461414337158203
0.002087831497192383
0.002062559127807617
0.0020346641540527344
0.002035379409790039
0.0020246505737304688
0.0020813941955566406
0.0020139217376708984
0.0020134449005126953
0.002035856246948242
0.0020089149475097656
0.002017974853515625
0.002035379409790039
0.002003192901611328
0.0020072460174560547
0.0020029544830322266
0.0020530223846435547
0.0020415782928466797
0.0020618438720703125
0.0020453929901123047
0.0020072460174560547
0.0020055770874023438
0.0022203922271728516
0.0020296573638916016
0.0019996166229248047
0.002079486846923828
0.002017974853515625
0.0020656585693359375
0.002028942108154297
0.0020482540130615234
0.0020096302032470703
0.0019996166229248047
0.0020532608032226562
0.002001047134399414
0.002015829086303711
0.001995086669921875
0.001995086669921875
0.0020143985748291016
0.0020074844360351562
0.002017974853515625
0.002035379409790039
0.0020427703857421875
0.0019991397857666016
0.0018701553344726562
0.0018842220306396484
0.001859903335571289
0.0018596649169921875
0.0018496513366699219
0.0018329620361328125
0.0015571117401123047
0.0016126632690429688
0.0015926361083984375
0.0015871524810791016
0.0016858577728271484
0.0016632080078125
0.001634359359741211
0.001630544662475586
0.0016396045684814453
0.0017151832580566406
0.001569509506225586
0.0015473365783691406
0.0015866756439208984
0.0015578269958496094
0.0016541481018066406
0.0016942024230957031
0.0016345977783203125
0.0016286373138427734
0.0016219615936279297
0.0016481876373291016
0.0015735626220703125
0.0015461444854736328
0.0015494823455810547
0.0015492439270019531
0.00154876708984375
0.0015718936920166016
0.0016543865203857422
0.0015628337860107422
0.0015442371368408203
0.0015518665313720703
0.0017323493957519531
0.0017974376678466797
0.0016770362854003906
0.001676797866821289
0.0016908645629882812
0.0015997886657714844
0.0016045570373535156
0.0015838146209716797
0.001589059829711914
0.0015730857849121094
0.0017533302307128906
0.0017666816711425781
0.001737356185913086
0.0017390251159667969
0.0017960071563720703
0.0017697811126708984
0.0015621185302734375
0.0015797615051269531
0.0015935897827148438
0.0015933513641357422
0.0016565322875976562
0.0017349720001220703
0.0016689300537109375
0.0016529560089111328
0.001659393310546875
0.0017566680908203125
0.001589059829711914
0.0015625953674316406
0.0015578269958496094
0.0015783309936523438
0.001567840576171875
0.0016624927520751953
0.0016300678253173828
0.0016846656799316406
0.0017070770263671875
0.0016739368438720703
0.0017192363739013672
0.0016095638275146484
0.0016064643859863281
0.001596212387084961
0.0015778541564941406
0.0016355514526367188
0.0016012191772460938
0.0015616416931152344
