2023-01-14 20:18:47.840341,82206,82194
2023-01-14 20:18:47.860306,125673,124615
2023-01-14 20:18:47.880305,126647,125243
2023-01-14 20:18:47.900304,126844,125446
2023-01-14 20:18:47.920325,127108,125744
2023-01-14 20:18:47.940306,127439,126122
2023-01-14 20:18:47.960302,127781,126380
2023-01-14 20:18:47.980301,128047,126484
2023-01-14 20:18:48.000301,128306,126588
2023-01-14 20:18:48.020302,128444,126582
2023-01-14 20:18:48.040303,133662,128488
2023-01-14 20:18:48.060302,128409,126443
2023-01-14 20:18:48.080302,133654,128463
2023-01-14 20:18:48.1003,128443,126416
2023-01-14 20:18:48.120303,133660,128450
2023-01-14 20:18:48.140304,128510,126464
2023-01-14 20:18:48.160303,133656,128442
2023-01-14 20:18:48.180301,128490,126568
2023-01-14 20:18:48.200303,133561,128405
2023-01-14 20:18:48.220301,128530,126705
2023-01-14 20:18:48.240303,133416,128387
2023-01-14 20:18:48.2603,128777,126897
2023-01-14 20:18:48.28034,133452,128471
2023-01-14 20:18:48.300325,129154,127188
2023-01-14 20:18:48.320309,133521,128499
2023-01-14 20:18:48.340311,129548,127458
2023-01-14 20:18:48.360303,133546,128499
2023-01-14 20:18:48.380302,129809,127609
2023-01-14 20:18:48.400303,133551,128482
2023-01-14 20:18:48.420302,130120,127860
2023-01-14 20:18:48.44034,133563,128456
2023-01-14 20:18:48.460333,130296,128023
2023-01-14 20:18:48.480334,133539,128413
2023-01-14 20:18:48.500332,130347,127973
2023-01-14 20:18:48.520334,133495,128371
2023-01-14 20:18:48.54037,130358,127895
2023-01-14 20:18:48.560335,133493,128366
2023-01-14 20:18:48.580332,130321,127792
2023-01-14 20:18:48.600329,133513,128364
2023-01-14 20:18:48.62033,130242,127719
2023-01-14 20:18:48.640333,133531,128368
2023-01-14 20:18:48.660334,130181,127612
2023-01-14 20:18:48.680336,133549,128386
2023-01-14 20:18:48.700333,130159,127576
2023-01-14 20:18:48.720334,133574,128395
2023-01-14 20:18:48.740339,130221,127626
2023-01-14 20:18:48.760336,133583,128400
2023-01-14 20:18:48.780335,130284,127714
2023-01-14 20:18:48.800332,133600,128412
2023-01-14 20:18:48.820333,130372,127777
2023-01-14 20:18:48.840338,133627,128429
2023-01-14 20:18:48.860332,130462,127841
2023-01-14 20:18:48.880333,133636,128436
2023-01-14 20:18:48.900333,130515,127939
2023-01-14 20:18:48.920331,82206,82194
2023-01-14 20:18:48.940339,130390,127889
2023-01-14 20:18:48.960336,125673,124615
2023-01-14 20:18:48.980333,130374,127869
2023-01-14 20:18:49.000331,126647,125243
2023-01-14 20:18:49.02033,130448,127858
2023-01-14 20:18:49.040336,126844,125446
2023-01-14 20:18:49.060333,130499,127849
2023-01-14 20:18:49.080335,127108,125744
2023-01-14 20:18:49.100335,130501,127751
2023-01-14 20:18:49.120332,127439,126122
2023-01-14 20:18:49.14034,130514,127706
2023-01-14 20:18:49.160338,127781,126380
2023-01-14 20:18:49.180334,130496,127633
2023-01-14 20:18:49.200333,128047,126484
2023-01-14 20:18:49.220332,130468,127504
2023-01-14 20:18:49.240335,128306,126588
2023-01-14 20:18:49.260331,130387,127378
2023-01-14 20:18:49.280334,128444,126582
2023-01-14 20:18:49.300333,130340,127358
2023-01-14 20:18:49.320332,128409,126443
2023-01-14 20:18:49.340338,130316,127319
2023-01-14 20:18:49.360365,128443,126416
2023-01-14 20:18:49.380794,130318,127301
2023-01-14 20:18:49.400328,128510,126464
2023-01-14 20:18:49.420334,130332,127292
2023-01-14 20:18:49.44033,128490,126568
2023-01-14 20:18:49.460328,130396,127359
2023-01-14 20:18:49.480334,128530,126705
2023-01-14 20:18:49.500334,130389,127335
2023-01-14 20:18:49.520333,128777,126897
2023-01-14 20:18:49.540339,130417,127326
2023-01-14 20:18:49.560362,129154,127188
2023-01-14 20:18:49.580333,130449,127335
2023-01-14 20:18:49.600332,129548,127458
2023-01-14 20:18:49.620335,130445,127372
2023-01-14 20:18:49.640333,129809,127609
2023-01-14 20:18:49.660327,130332,127291
2023-01-14 20:18:49.680335,130120,127860
2023-01-14 20:18:49.70033,130205,127189
2023-01-14 20:18:49.720335,130296,128023
2023-01-14 20:18:49.740338,130233,127187
2023-01-14 20:18:49.760336,130347,127973
2023-01-14 20:18:49.780332,130290,127226
2023-01-14 20:18:49.800333,130358,127895
2023-01-14 20:18:49.820332,130385,127268
2023-01-14 20:18:49.840332,130321,127792
2023-01-14 20:18:49.860325,130418,127305
2023-01-14 20:18:49.880333,130242,127719
2023-01-14 20:18:49.900334,130503,127338
2023-01-14 20:18:49.920334,130181,127612
2023-01-14 20:18:49.940333,130542,127349
2023-01-14 20:18:49.960335,130159,127576
2023-01-14 20:18:49.980334,130562,127347
2023-01-14 20:18:50.000333,130221,127626
2023-01-14 20:18:50.020346,130594,127343
2023-01-14 20:18:50.040344,130284,127714
2023-01-14 20:18:50.060329,130602,127317
2023-01-14 20:18:50.080334,130372,127777
2023-01-14 20:18:50.100334,130608,127327
2023-01-14 20:18:50.120333,130462,127841
2023-01-14 20:18:50.140339,130659,127393
2023-01-14 20:18:50.160335,130515,127939
2023-01-14 20:18:50.180335,130699,127441
2023-01-14 20:18:50.200341,130390,127889
2023-01-14 20:18:50.220336,130742,127471
2023-01-14 20:18:50.240333,130374,127869
2023-01-14 20:18:50.260327,130769,127500
2023-01-14 20:18:50.280333,130448,127858
2023-01-14 20:18:50.30033,130783,127520
2023-01-14 20:18:50.320339,130499,127849
2023-01-14 20:18:50.340331,130684,127475
2023-01-14 20:18:50.360331,130501,127751
2023-01-14 20:18:50.380365,130595,127428
2023-01-14 20:18:50.400333,130514,127706
2023-01-14 20:18:50.420333,130649,127442
2023-01-14 20:18:50.440332,130496,127633
2023-01-14 20:18:50.460327,130714,127441
2023-01-14 20:18:50.480336,130468,127504
2023-01-14 20:18:50.500334,130733,127450
2023-01-14 20:18:50.520333,130387,127378
2023-01-14 20:18:50.540337,130756,127427
2023-01-14 20:18:50.560335,130340,127358
2023-01-14 20:18:50.580332,130775,127440
2023-01-14 20:18:50.600332,130316,127319
2023-01-14 20:18:50.620335,130778,127426
2023-01-14 20:18:50.64033,130318,127301
2023-01-14 20:18:50.660325,130767,127396
2023-01-14 20:18:50.680329,130332,127292
2023-01-14 20:18:50.700334,130753,127354
2023-01-14 20:18:50.720335,130396,127359
2023-01-14 20:18:50.740336,130741,127309
2023-01-14 20:18:50.760335,130389,127335
2023-01-14 20:18:50.780333,130748,127284
2023-01-14 20:18:50.800332,130417,127326
2023-01-14 20:18:50.820331,130764,127294
2023-01-14 20:18:50.84033,130449,127335
2023-01-14 20:18:50.860326,130807,127337
2023-01-14 20:18:50.88033,130445,127372
2023-01-14 20:18:50.900333,130848,127389
2023-01-14 20:18:50.920344,130332,127291
2023-01-14 20:18:50.940333,130875,127421
2023-01-14 20:18:50.96033,130205,127189
2023-01-14 20:18:50.980333,130905,127463
2023-01-14 20:18:51.000332,130233,127187
2023-01-14 20:18:51.020332,130769,127418
2023-01-14 20:18:51.04033,130290,127226
2023-01-14 20:18:51.060326,130668,127352
2023-01-14 20:18:51.080332,130385,127268
2023-01-14 20:18:51.100332,130715,127351
2023-01-14 20:18:51.120336,130418,127305
2023-01-14 20:18:51.140331,130791,127368
2023-01-14 20:18:51.160341,130503,127338
2023-01-14 20:18:51.180333,130833,127422
2023-01-14 20:18:51.200331,130542,127349
2023-01-14 20:18:51.220332,130870,127460
2023-01-14 20:18:51.240331,130562,127347
2023-01-14 20:18:51.260325,130893,127466
2023-01-14 20:18:51.28033,130594,127343
2023-01-14 20:18:51.300332,130892,127428
2023-01-14 20:18:51.320337,130602,127317
2023-01-14 20:18:51.340333,130896,127434
2023-01-14 20:18:51.360329,130608,127327
2023-01-14 20:18:51.380332,130909,127408
2023-01-14 20:18:51.400362,130659,127393
2023-01-14 20:18:51.42033,130903,127363
2023-01-14 20:18:51.440329,130699,127441
2023-01-14 20:18:51.460326,130907,127343
2023-01-14 20:18:51.480331,130742,127471
2023-01-14 20:18:51.500363,130932,127344
2023-01-14 20:18:51.520333,130769,127500
2023-01-14 20:18:51.540336,130961,127374
2023-01-14 20:18:51.560333,130783,127520
2023-01-14 20:18:51.580331,130986,127376
2023-01-14 20:18:51.600362,130684,127475
2023-01-14 20:18:51.620332,130993,127360
2023-01-14 20:18:51.640337,130595,127428
2023-01-14 20:18:51.660326,131017,127370
2023-01-14 20:18:51.680329,130649,127442
2023-01-14 20:18:51.700361,130928,127347
2023-01-14 20:18:51.720333,130714,127441
2023-01-14 20:18:51.740335,130772,127268
2023-01-14 20:18:51.760332,130733,127450
2023-01-14 20:18:51.78033,130805,127269
2023-01-14 20:18:51.80033,130756,127427
2023-01-14 20:18:51.82033,130867,127284
2023-01-14 20:18:51.840331,130775,127440
2023-01-14 20:18:51.860324,130903,127284
2023-01-14 20:18:51.880328,130778,127426
2023-01-14 20:18:51.900331,130922,127283
2023-01-14 20:18:51.92033,130767,127396
2023-01-14 20:18:51.940338,130967,127313
2023-01-14 20:18:51.960329,130753,127354
2023-01-14 20:18:51.980328,130966,127302
2023-01-14 20:18:52.000332,130741,127309
2023-01-14 20:18:52.020331,130959,127259
2023-01-14 20:18:52.040328,130748,127284
2023-01-14 20:18:52.060325,130946,127220
2023-01-14 20:18:52.08033,130764,127294
2023-01-14 20:18:52.100331,130958,127212
2023-01-14 20:18:52.120331,130807,127337
2023-01-14 20:18:52.140335,130986,127222
2023-01-14 20:18:52.160331,130848,127389
2023-01-14 20:18:52.180331,131008,127249
2023-01-14 20:18:52.200331,130875,127421
2023-01-14 20:18:52.22033,131036,127264
2023-01-14 20:18:52.240328,130905,127463
2023-01-14 20:18:52.260322,131042,127232
2023-01-14 20:18:52.280326,130769,127418
2023-01-14 20:18:52.300331,131053,127221
2023-01-14 20:18:52.32033,130668,127352
2023-01-14 20:18:52.340334,131063,127212
2023-01-14 20:18:52.360332,130715,127351
2023-01-14 20:18:52.38033,130802,127266
2023-01-14 20:18:52.400331,130791,127368
2023-01-14 20:18:52.42033,130670,127186
2023-01-14 20:18:52.44033,130833,127422
2023-01-14 20:18:52.460323,130532,127062
2023-01-14 20:18:52.480329,130870,127460
2023-01-14 20:18:52.500333,130567,127042
2023-01-14 20:18:52.520331,130893,127466
2023-01-14 20:18:52.540336,130606,127051
2023-01-14 20:18:52.560331,130892,127428
2023-01-14 20:18:52.580331,130614,127024
2023-01-14 20:18:52.600329,130896,127434
2023-01-14 20:18:52.62033,130618,127003
2023-01-14 20:18:52.640328,130909,127408
2023-01-14 20:18:52.660323,130619,126968
2023-01-14 20:18:52.680329,130903,127363
2023-01-14 20:18:52.700331,130596,126948
2023-01-14 20:18:52.720331,130907,127343
2023-01-14 20:18:52.740336,130594,126930
2023-01-14 20:18:52.760327,130932,127344
2023-01-14 20:18:52.780331,130589,126913
2023-01-14 20:18:52.800329,130961,127374
2023-01-14 20:18:52.820329,130609,126939
2023-01-14 20:18:52.840329,130986,127376
2023-01-14 20:18:52.860323,130646,126990
2023-01-14 20:18:52.880327,130993,127360
2023-01-14 20:18:52.900336,130704,127054
2023-01-14 20:18:52.920335,131017,127370
2023-01-14 20:18:52.940331,130762,127137
2023-01-14 20:18:52.960332,130928,127347
2023-01-14 20:18:52.980331,130787,127149
2023-01-14 20:18:53.000328,130772,127268
2023-01-14 20:18:53.02033,130818,127171
2023-01-14 20:18:53.040328,130805,127269
2023-01-14 20:18:53.060326,130863,127233
2023-01-14 20:18:53.080329,130867,127284
2023-01-14 20:18:53.10033,130729,127188
2023-01-14 20:18:53.120342,130903,127284
2023-01-14 20:18:53.140331,130587,127062
2023-01-14 20:18:53.160326,130922,127283
2023-01-14 20:18:53.180333,130573,126967
2023-01-14 20:18:53.20033,130967,127313
2023-01-14 20:18:53.22033,130578,126889
2023-01-14 20:18:53.240332,130966,127302
2023-01-14 20:18:53.260323,130593,126883
2023-01-14 20:18:53.280329,130959,127259
2023-01-14 20:18:53.30033,130638,126907
2023-01-14 20:18:53.320333,130946,127220
2023-01-14 20:18:53.340339,130664,126923
2023-01-14 20:18:53.360333,130958,127212
2023-01-14 20:18:53.380331,130645,126889
2023-01-14 20:18:53.400331,130986,127222
2023-01-14 20:18:53.420333,130643,126886
2023-01-14 20:18:53.440337,131008,127249
2023-01-14 20:18:53.460352,130658,126884
2023-01-14 20:18:53.480331,131036,127264
2023-01-14 20:18:53.500335,130669,126857
2023-01-14 20:18:53.520333,131042,127232
2023-01-14 20:18:53.540336,130682,126863
2023-01-14 20:18:53.560327,131053,127221
2023-01-14 20:18:53.580331,130718,126911
2023-01-14 20:18:53.600331,131063,127212
2023-01-14 20:18:53.62033,130751,126925
2023-01-14 20:18:53.640337,130802,127266
2023-01-14 20:18:53.660325,130751,126919
2023-01-14 20:18:53.680331,130670,127186
2023-01-14 20:18:53.70033,130765,126905
2023-01-14 20:18:53.720331,130532,127062
2023-01-14 20:18:53.740335,130789,126938
2023-01-14 20:18:53.760333,130567,127042
2023-01-14 20:18:53.78033,130729,126917
2023-01-14 20:18:53.800327,130606,127051
2023-01-14 20:18:53.820331,130548,126798
2023-01-14 20:18:53.840334,130614,127024
2023-01-14 20:18:53.860326,130551,126767
2023-01-14 20:18:53.880327,130618,127003
2023-01-14 20:18:53.900331,130607,126773
2023-01-14 20:18:53.920346,130619,126968
2023-01-14 20:18:53.940334,130655,126795
2023-01-14 20:18:53.96033,130596,126948
2023-01-14 20:18:53.980329,130672,126791
2023-01-14 20:18:54.000329,130594,126930
2023-01-14 20:18:54.020332,130700,126788
2023-01-14 20:18:54.040332,130589,126913
2023-01-14 20:18:54.060326,130694,126758
2023-01-14 20:18:54.08033,130609,126939
2023-01-14 20:18:54.100329,130688,126763
2023-01-14 20:18:54.120331,130646,126990
2023-01-14 20:18:54.140335,130688,126738
2023-01-14 20:18:54.160331,130704,127054
2023-01-14 20:18:54.180331,130692,126767
2023-01-14 20:18:54.20033,130762,127137
2023-01-14 20:18:54.220334,130702,126760
2023-01-14 20:18:54.24033,130787,127149
2023-01-14 20:18:54.260325,130717,126765
2023-01-14 20:18:54.28033,130818,127171
2023-01-14 20:18:54.300329,130745,126766
2023-01-14 20:18:54.320329,130863,127233
2023-01-14 20:18:54.340334,130763,126797
2023-01-14 20:18:54.36033,130729,127188
2023-01-14 20:18:54.380337,130729,126842
2023-01-14 20:18:54.400333,130587,127062
2023-01-14 20:18:54.42033,130587,126828
2023-01-14 20:18:54.440332,130573,126967
2023-01-14 20:18:54.460326,130573,126967
2023-01-14 20:18:54.480331,130578,126889
2023-01-14 20:18:54.500329,130578,126889
2023-01-14 20:18:54.520329,130593,126883
2023-01-14 20:18:54.540334,130593,126883
2023-01-14 20:18:54.56033,130638,126907
2023-01-14 20:18:54.58033,130638,126907
2023-01-14 20:18:54.600331,130638,126907
2023-01-14 20:18:54.62033,130664,126923
2023-01-14 20:18:54.640333,130645,126889
2023-01-14 20:18:54.660328,130645,126889
2023-01-14 20:18:54.68033,130606,126662
2023-01-14 20:18:54.700329,130643,126886
2023-01-14 20:18:54.72033,130695,126705
2023-01-14 20:18:54.740332,130658,126884
2023-01-14 20:18:54.760331,130718,126706
2023-01-14 20:18:54.78033,130669,126857
2023-01-14 20:18:54.800329,130742,126745
2023-01-14 20:18:54.820329,130682,126863
2023-01-14 20:18:54.84033,130733,126742
2023-01-14 20:18:54.860328,130718,126911
2023-01-14 20:18:54.880328,130731,126747
2023-01-14 20:18:54.900332,130751,126925
2023-01-14 20:18:54.920329,130688,126702
2023-01-14 20:18:54.940337,130751,126919
2023-01-14 20:18:54.960331,130689,126667
2023-01-14 20:18:54.980329,130765,126905
2023-01-14 20:18:55.00033,130727,126635
2023-01-14 20:18:55.020329,130789,126938
2023-01-14 20:18:55.040333,130740,126628
2023-01-14 20:18:55.06033,130729,126917
2023-01-14 20:18:55.080326,130757,126645
2023-01-14 20:18:55.100329,130548,126798
2023-01-14 20:18:55.120328,130752,126611
2023-01-14 20:18:55.140335,130551,126767
2023-01-14 20:18:55.160328,130733,126566
2023-01-14 20:18:55.180331,130607,126773
2023-01-14 20:18:55.200328,130672,126501
2023-01-14 20:18:55.220329,130655,126795
2023-01-14 20:18:55.240332,130647,126453
2023-01-14 20:18:55.260328,130672,126791
2023-01-14 20:18:55.280329,130625,126414
2023-01-14 20:18:55.300329,130700,126788
2023-01-14 20:18:55.320328,130651,126412
2023-01-14 20:18:55.340329,130694,126758
2023-01-14 20:18:55.360331,130521,126334
2023-01-14 20:18:55.380329,130688,126763
2023-01-14 20:18:55.400328,130480,126279
2023-01-14 20:18:55.420328,130688,126738
2023-01-14 20:18:55.440332,130520,126281
2023-01-14 20:18:55.460329,130692,126767
2023-01-14 20:18:55.480325,130566,126256
2023-01-14 20:18:55.500329,130702,126760
2023-01-14 20:18:55.520328,130568,126222
2023-01-14 20:18:55.54033,130717,126765
2023-01-14 20:18:55.560326,130577,126233
2023-01-14 20:18:55.580329,130745,126766
2023-01-14 20:18:55.600324,130579,126255
2023-01-14 20:18:55.620311,130763,126797
2023-01-14 20:18:55.640308,130530,126225
2023-01-14 20:18:55.660307,130804,126842
2023-01-14 20:18:55.680304,130508,126188
2023-01-14 20:18:55.700306,130813,126828
2023-01-14 20:18:55.72031,130511,126160
2023-01-14 20:18:55.740312,130817,126830
2023-01-14 20:18:55.760309,130523,126188
2023-01-14 20:18:55.780309,130766,126827
2023-01-14 20:18:55.800306,130574,126246
2023-01-14 20:18:55.820307,130575,126737
2023-01-14 20:18:55.840324,130620,126304
2023-01-14 20:18:55.860311,130638,126907
2023-01-14 20:18:55.880308,130663,126360
2023-01-14 20:18:55.90031,130588,126675
2023-01-14 20:18:55.92031,130697,126392
2023-01-14 20:18:55.940314,130606,126662
2023-01-14 20:18:55.960306,130724,126423
2023-01-14 20:18:55.980309,130695,126705
2023-01-14 20:18:56.000305,130737,126428
2023-01-14 20:18:56.020308,130718,126706
2023-01-14 20:18:56.040309,130746,126434
2023-01-14 20:18:56.060308,130742,126745
2023-01-14 20:18:56.080305,130768,126431
2023-01-14 20:18:56.100307,130733,126742
2023-01-14 20:18:56.12034,130750,126444
2023-01-14 20:18:56.140312,130731,126747
2023-01-14 20:18:56.160306,130591,126370
2023-01-14 20:18:56.180309,130688,126702
2023-01-14 20:18:56.200309,130551,126336
2023-01-14 20:18:56.220309,130689,126667
2023-01-14 20:18:56.24031,130623,126381
2023-01-14 20:18:56.260308,130727,126635
2023-01-14 20:18:56.280305,130711,126444
2023-01-14 20:18:56.300308,130740,126628
2023-01-14 20:18:56.320309,130751,126476
2023-01-14 20:18:56.340309,130757,126645
2023-01-14 20:18:56.360306,130794,126504
2023-01-14 20:18:56.380307,130752,126611
2023-01-14 20:18:56.400304,130812,126519
2023-01-14 20:18:56.420307,130733,126566
2023-01-14 20:18:56.440306,130801,126476
2023-01-14 20:18:56.460308,130672,126501
2023-01-14 20:18:56.480304,130777,126436
2023-01-14 20:18:56.500307,130647,126453
2023-01-14 20:18:56.520308,130766,126394
2023-01-14 20:18:56.540311,130625,126414
2023-01-14 20:18:56.560307,130776,126395
2023-01-14 20:18:56.580307,130651,126412
2023-01-14 20:18:56.600304,130793,126399
2023-01-14 20:18:56.620306,130521,126334
2023-01-14 20:18:56.640308,130802,126392
2023-01-14 20:18:56.660308,130480,126279
2023-01-14 20:18:56.680304,130805,126380
2023-01-14 20:18:56.700308,130520,126281
2023-01-14 20:18:56.720309,130811,126369
2023-01-14 20:18:56.740311,130566,126256
2023-01-14 20:18:56.760305,130828,126382
2023-01-14 20:18:56.780308,130568,126222
2023-01-14 20:18:56.800304,130845,126386
2023-01-14 20:18:56.820307,130577,126233
2023-01-14 20:18:56.840309,130850,126371
2023-01-14 20:18:56.860309,130579,126255
2023-01-14 20:18:56.880305,130847,126374
2023-01-14 20:18:56.900308,130530,126225
2023-01-14 20:18:56.920307,130817,126368
2023-01-14 20:18:56.940311,130508,126188
2023-01-14 20:18:56.960306,130605,126271
2023-01-14 20:18:56.980308,130511,126160
2023-01-14 20:18:57.000304,130573,126233
2023-01-14 20:18:57.020307,130523,126188
2023-01-14 20:18:57.040307,130633,126224
2023-01-14 20:18:57.060308,130574,126246
2023-01-14 20:18:57.080304,130660,126213
2023-01-14 20:18:57.100308,130620,126304
2023-01-14 20:18:57.120307,130685,126207
2023-01-14 20:18:57.140311,130663,126360
2023-01-14 20:18:57.160305,130683,126182
2023-01-14 20:18:57.180307,130697,126392
2023-01-14 20:18:57.200304,130715,126202
2023-01-14 20:18:57.220306,130724,126423
2023-01-14 20:18:57.240308,130706,126194
2023-01-14 20:18:57.260307,130737,126428
2023-01-14 20:18:57.280304,130706,126196
2023-01-14 20:18:57.300307,130746,126434
2023-01-14 20:18:57.320306,130708,126169
2023-01-14 20:18:57.340309,130768,126431
2023-01-14 20:18:57.36033,130718,126181
2023-01-14 20:18:57.380307,130750,126444
2023-01-14 20:18:57.400304,130754,126204
2023-01-14 20:18:57.420306,130591,126370
2023-01-14 20:18:57.440307,130770,126224
2023-01-14 20:18:57.460308,130551,126336
2023-01-14 20:18:57.480304,130778,126222
2023-01-14 20:18:57.500306,130623,126381
2023-01-14 20:18:57.520308,130801,126242
2023-01-14 20:18:57.54031,130711,126444
2023-01-14 20:18:57.560306,130803,126235
2023-01-14 20:18:57.580307,130751,126476
2023-01-14 20:18:57.600304,130781,126172
2023-01-14 20:18:57.620307,130794,126504
2023-01-14 20:18:57.640307,130755,126105
2023-01-14 20:18:57.660307,130812,126519
2023-01-14 20:18:57.680303,130721,126078
2023-01-14 20:18:57.700305,130801,126476
2023-01-14 20:18:57.720308,130542,125973
2023-01-14 20:18:57.740309,130777,126436
2023-01-14 20:18:57.760304,130435,125850
2023-01-14 20:18:57.780305,130766,126394
2023-01-14 20:18:57.800302,130453,125785
2023-01-14 20:18:57.820321,130776,126395
2023-01-14 20:18:57.840306,130461,125767
2023-01-14 20:18:57.860308,130793,126399
2023-01-14 20:18:57.920355,130802,126392
2023-01-14 20:18:57.940334,130496,125760
2023-01-14 20:18:57.960353,130805,126380
2023-01-14 20:18:57.980374,130510,125757
2023-01-14 20:18:58.001392,130811,126369
2023-01-14 20:18:58.020323,130485,125726
2023-01-14 20:18:58.040317,130828,126382
2023-01-14 20:18:58.06032,130451,125663
2023-01-14 20:18:58.08031,130845,126386
2023-01-14 20:18:58.100293,130423,125612
2023-01-14 20:18:58.120308,130850,126371
2023-01-14 20:18:58.140299,130398,125545
2023-01-14 20:18:58.160294,130847,126374
2023-01-14 20:18:58.180348,130398,125508
2023-01-14 20:18:58.200302,130817,126368
2023-01-14 20:18:58.220297,130406,125520
2023-01-14 20:18:58.240298,130605,126271
2023-01-14 20:18:58.260292,130386,125477
2023-01-14 20:18:58.280316,130573,126233
2023-01-14 20:18:58.300293,130366,125424
2023-01-14 20:18:58.320293,130633,126224
2023-01-14 20:18:58.340303,130362,125398
2023-01-14 20:18:58.360292,130660,126213
2023-01-14 20:18:58.380293,130349,125395
2023-01-14 20:18:58.400293,130685,126207
2023-01-14 20:18:58.420293,130349,125376
2023-01-14 20:18:58.440299,130683,126182
2023-01-14 20:18:58.460295,130351,125395
2023-01-14 20:18:58.480294,130715,126202
2023-01-14 20:18:58.500296,130231,125375
2023-01-14 20:18:58.520292,130706,126194
2023-01-14 20:18:58.540297,130198,125387
2023-01-14 20:18:58.560294,130706,126196
2023-01-14 20:18:58.580292,130258,125432
2023-01-14 20:18:58.600293,130708,126169
2023-01-14 20:18:58.620292,130326,125479
2023-01-14 20:18:58.640312,130718,126181
2023-01-14 20:18:58.660293,130376,125535
2023-01-14 20:18:58.680291,130754,126204
2023-01-14 20:18:58.700293,130433,125592
2023-01-14 20:18:58.720332,130770,126224
2023-01-14 20:18:58.740337,130465,125622
2023-01-14 20:18:58.760327,130778,126222
2023-01-14 20:18:58.780325,130455,125605
2023-01-14 20:18:58.800325,130801,126242
2023-01-14 20:18:58.820353,130444,125579
2023-01-14 20:18:58.840335,130803,126235
2023-01-14 20:18:58.860327,130474,125598
2023-01-14 20:18:58.880326,130781,126172
2023-01-14 20:18:58.900325,130503,125609
2023-01-14 20:18:58.920354,130755,126105
2023-01-14 20:18:58.940336,130537,125646
2023-01-14 20:18:58.960326,130721,126078
2023-01-14 20:18:58.98032,130570,125688
2023-01-14 20:18:59.000318,130542,125973
2023-01-14 20:18:59.020322,130615,125750
2023-01-14 20:18:59.040333,130435,125850
2023-01-14 20:18:59.060326,130649,125773
2023-01-14 20:18:59.080327,130453,125785
2023-01-14 20:18:59.100325,130676,125781
2023-01-14 20:18:59.120322,130461,125767
2023-01-14 20:18:59.140336,130672,125785
2023-01-14 20:18:59.160327,130475,125759
2023-01-14 20:18:59.180328,130704,125808
2023-01-14 20:18:59.200324,130496,125760
2023-01-14 20:18:59.220321,130569,125751
2023-01-14 20:18:59.240332,130510,125757
2023-01-14 20:18:59.260323,130387,125648
2023-01-14 20:18:59.280324,130485,125726
2023-01-14 20:18:59.300325,130412,125641
2023-01-14 20:18:59.320322,130451,125663
2023-01-14 20:18:59.340334,130484,125639
2023-01-14 20:18:59.360327,130423,125612
2023-01-14 20:18:59.380324,130532,125655
2023-01-14 20:18:59.400329,130398,125545
2023-01-14 20:18:59.420322,130565,125636
2023-01-14 20:18:59.440336,130398,125508
2023-01-14 20:18:59.460326,130603,125657
2023-01-14 20:18:59.480325,130406,125520
2023-01-14 20:18:59.500324,130598,125676
2023-01-14 20:18:59.52032,130386,125477
2023-01-14 20:18:59.540332,130582,125658
2023-01-14 20:18:59.560325,130366,125424
2023-01-14 20:18:59.580324,130560,125627
2023-01-14 20:18:59.600326,130362,125398
2023-01-14 20:18:59.62032,130557,125598
2023-01-14 20:18:59.640334,130349,125395
2023-01-14 20:18:59.660326,130606,125650
2023-01-14 20:18:59.680322,130349,125376
2023-01-14 20:18:59.700322,130639,125673
2023-01-14 20:18:59.72032,130351,125395
2023-01-14 20:18:59.740335,130647,125674
2023-01-14 20:18:59.760326,130231,125375
2023-01-14 20:18:59.780324,130659,125689
2023-01-14 20:18:59.800324,130198,125387
2023-01-14 20:18:59.82032,130663,125710
2023-01-14 20:18:59.84034,130258,125432
2023-01-14 20:18:59.860323,130675,125689
2023-01-14 20:18:59.880325,130326,125479
2023-01-14 20:18:59.900324,130657,125681
2023-01-14 20:18:59.92032,130376,125535
2023-01-14 20:18:59.940336,130567,125629
2023-01-14 20:18:59.960324,130433,125592
2023-01-14 20:18:59.980326,130304,125495
2023-01-14 20:19:00.000328,130465,125622
2023-01-14 20:19:00.02032,130272,125464
2023-01-14 20:19:00.040347,130455,125605
2023-01-14 20:19:00.060324,130360,125514
2023-01-14 20:19:00.080327,130444,125579
2023-01-14 20:19:00.100324,130430,125517
2023-01-14 20:19:00.120319,130474,125598
2023-01-14 20:19:00.140331,130493,125544
2023-01-14 20:19:00.160327,130503,125609
2023-01-14 20:19:00.180324,130515,125524
2023-01-14 20:19:00.200331,130537,125646
2023-01-14 20:19:00.220321,130506,125565
2023-01-14 20:19:00.240367,130570,125688
2023-01-14 20:19:00.260325,130505,125562
2023-01-14 20:19:00.280323,130615,125750
2023-01-14 20:19:00.300325,130478,125506
2023-01-14 20:19:00.320329,130649,125773
2023-01-14 20:19:00.340327,130504,125456
2023-01-14 20:19:00.360322,130676,125781
2023-01-14 20:19:00.38032,130469,125438
2023-01-14 20:19:00.400318,130672,125785
2023-01-14 20:19:00.420315,130549,125476
2023-01-14 20:19:00.440327,130704,125808
2023-01-14 20:19:00.460322,130563,125489
2023-01-14 20:19:00.480324,130569,125751
2023-01-14 20:19:00.500323,130591,125519
2023-01-14 20:19:00.520327,130387,125648
2023-01-14 20:19:00.540327,130572,125535
2023-01-14 20:19:00.560326,130412,125641
2023-01-14 20:19:00.580324,130588,125534
2023-01-14 20:19:00.600323,130484,125639
2023-01-14 20:19:00.62032,130569,125518
2023-01-14 20:19:00.640333,130532,125655
2023-01-14 20:19:00.660325,130578,125510
2023-01-14 20:19:00.680324,130565,125636
2023-01-14 20:19:00.700322,130601,125509
2023-01-14 20:19:00.720318,130603,125657
2023-01-14 20:19:00.740332,130680,125550
2023-01-14 20:19:00.760321,130598,125676
2023-01-14 20:19:00.780323,130510,125474
2023-01-14 20:19:00.800333,130582,125658
2023-01-14 20:19:00.820319,130387,125373
2023-01-14 20:19:00.840331,130560,125627
2023-01-14 20:19:00.860326,130442,125397
2023-01-14 20:19:00.880324,130557,125598
2023-01-14 20:19:00.900324,130515,125409
2023-01-14 20:19:00.920318,130606,125650
2023-01-14 20:19:00.940332,130543,125417
2023-01-14 20:19:00.960322,130639,125673
2023-01-14 20:19:00.980324,130550,125402
2023-01-14 20:19:01.000323,130647,125674
2023-01-14 20:19:01.020338,130566,125423
2023-01-14 20:19:01.040387,130659,125689
2023-01-14 20:19:01.060337,130559,125409
2023-01-14 20:19:01.080329,130663,125710
2023-01-14 20:19:01.100307,130520,125358
2023-01-14 20:19:01.120308,130675,125689
2023-01-14 20:19:01.14031,130521,125344
2023-01-14 20:19:01.160311,130657,125681
2023-01-14 20:19:01.180311,130534,125342
2023-01-14 20:19:01.200315,130567,125629
2023-01-14 20:19:01.220318,130579,125389
2023-01-14 20:19:01.240321,130304,125495
2023-01-14 20:19:01.260343,130655,125519
2023-01-14 20:19:01.280324,130272,125464
2023-01-14 20:19:01.300323,130735,125606
2023-01-14 20:19:01.320321,130360,125514
2023-01-14 20:19:01.340323,130745,125611
2023-01-14 20:19:01.360356,130430,125517
2023-01-14 20:19:01.380323,130732,125588
2023-01-14 20:19:01.400323,130493,125544
2023-01-14 20:19:01.420321,130732,125567
2023-01-14 20:19:01.440327,130515,125524
2023-01-14 20:19:01.460324,130726,125535
2023-01-14 20:19:01.480323,130506,125565
2023-01-14 20:19:01.500322,130709,125490
2023-01-14 20:19:01.520319,130505,125562
2023-01-14 20:19:01.540325,130678,125417
2023-01-14 20:19:01.560324,130478,125506
2023-01-14 20:19:01.580322,130648,125344
2023-01-14 20:19:01.600321,130504,125456
2023-01-14 20:19:01.620319,130668,125361
2023-01-14 20:19:01.640325,130469,125438
2023-01-14 20:19:01.660456,130607,125370
2023-01-14 20:19:01.680323,130549,125476
2023-01-14 20:19:01.700322,130374,125258
2023-01-14 20:19:01.720336,130563,125489
2023-01-14 20:19:01.740326,130388,125276
2023-01-14 20:19:01.760322,130591,125519
2023-01-14 20:19:01.780322,130472,125315
2023-01-14 20:19:01.800322,130572,125535
2023-01-14 20:19:01.820318,130541,125357
2023-01-14 20:19:01.840333,130588,125534
2023-01-14 20:19:01.860325,130568,125374
2023-01-14 20:19:01.880318,130569,125518
2023-01-14 20:19:01.900324,130608,125389
2023-01-14 20:19:01.920321,130578,125510
2023-01-14 20:19:01.940327,130624,125403
2023-01-14 20:19:01.960325,130601,125509
2023-01-14 20:19:01.980323,130609,125360
2023-01-14 20:19:02.00032,130680,125550
2023-01-14 20:19:02.02032,130594,125308
2023-01-14 20:19:02.040326,130510,125474
2023-01-14 20:19:02.060336,130575,125268
2023-01-14 20:19:02.080322,130387,125373
2023-01-14 20:19:02.100323,130580,125255
2023-01-14 20:19:02.12032,130442,125397
2023-01-14 20:19:02.140328,130609,125289
2023-01-14 20:19:02.160329,130515,125409
2023-01-14 20:19:02.180322,130644,125307
2023-01-14 20:19:02.200325,130543,125417
2023-01-14 20:19:02.220323,130668,125341
2023-01-14 20:19:02.240325,130550,125402
2023-01-14 20:19:02.260322,130681,125324
2023-01-14 20:19:02.280355,130566,125423
2023-01-14 20:19:02.300322,130668,125299
2023-01-14 20:19:02.32032,130559,125409
2023-01-14 20:19:02.340326,130678,125314
2023-01-14 20:19:02.360319,130520,125358
2023-01-14 20:19:02.380323,130678,125265
2023-01-14 20:19:02.400323,130521,125344
2023-01-14 20:19:02.420319,130666,125225
2023-01-14 20:19:02.440325,130534,125342
2023-01-14 20:19:02.460322,130669,125233
2023-01-14 20:19:02.480321,130579,125389
2023-01-14 20:19:02.500322,130543,125178
2023-01-14 20:19:02.520331,130655,125519
2023-01-14 20:19:02.540344,130289,125048
2023-01-14 20:19:02.560321,130735,125606
2023-01-14 20:19:02.580323,130312,125035
2023-01-14 20:19:02.600321,130745,125611
2023-01-14 20:19:02.620319,130393,125063
2023-01-14 20:19:02.640333,130732,125588
2023-01-14 20:19:02.660321,130420,125063
2023-01-14 20:19:02.680318,130732,125567
2023-01-14 20:19:02.700323,130430,125059
2023-01-14 20:19:02.720318,130726,125535
2023-01-14 20:19:02.740329,130462,125077
2023-01-14 20:19:02.76032,130709,125490
2023-01-14 20:19:02.780322,130486,125110
2023-01-14 20:19:02.800322,130678,125417
2023-01-14 20:19:02.82032,130485,125096
2023-01-14 20:19:02.840331,130648,125344
2023-01-14 20:19:02.86032,130477,125066
2023-01-14 20:19:02.880323,130668,125361
2023-01-14 20:19:02.900326,130478,125036
2023-01-14 20:19:02.920319,130607,125370
2023-01-14 20:19:02.940328,130487,125025
2023-01-14 20:19:02.960316,130374,125258
2023-01-14 20:19:02.980323,130499,125040
2023-01-14 20:19:03.000322,130388,125276
2023-01-14 20:19:03.020318,130518,125052
2023-01-14 20:19:03.040327,130472,125315
2023-01-14 20:19:03.060316,130523,125065
2023-01-14 20:19:03.080321,130541,125357
2023-01-14 20:19:03.100355,130538,125089
2023-01-14 20:19:03.120325,130568,125374
2023-01-14 20:19:03.14033,130558,125114
2023-01-14 20:19:03.160316,130608,125389
2023-01-14 20:19:03.180315,130562,125090
2023-01-14 20:19:03.200319,130624,125403
2023-01-14 20:19:03.22032,130538,125042
2023-01-14 20:19:03.240333,130609,125360
2023-01-14 20:19:03.260318,130533,125040
2023-01-14 20:19:03.280336,130594,125308
2023-01-14 20:19:03.300324,130368,124942
2023-01-14 20:19:03.320313,130575,125268
2023-01-14 20:19:03.340335,130181,124814
2023-01-14 20:19:03.360329,130580,125255
2023-01-14 20:19:03.38031,130231,124824
2023-01-14 20:19:03.400319,130609,125289
2023-01-14 20:19:03.420321,130339,124893
2023-01-14 20:19:03.440333,130644,125307
2023-01-14 20:19:03.460322,130386,124930
2023-01-14 20:19:03.480321,130668,125341
2023-01-14 20:19:03.500318,130420,124938
2023-01-14 20:19:03.520317,130681,125324
2023-01-14 20:19:03.540323,130443,124941
2023-01-14 20:19:03.560318,130668,125299
2023-01-14 20:19:03.580315,130442,124920
2023-01-14 20:19:03.600319,130678,125314
2023-01-14 20:19:03.620317,130404,124852
2023-01-14 20:19:03.640333,130678,125265
2023-01-14 20:19:03.660332,130381,124784
2023-01-14 20:19:03.680331,130666,125225
2023-01-14 20:19:03.700355,130379,124742
2023-01-14 20:19:03.720341,130669,125233
2023-01-14 20:19:03.740339,130380,124726
2023-01-14 20:19:03.76031,130543,125178
2023-01-14 20:19:03.780309,130386,124736
2023-01-14 20:19:03.800312,130289,125048
2023-01-14 20:19:03.820311,130412,124770
2023-01-14 20:19:03.840318,130312,125035
2023-01-14 20:19:03.860307,130442,124818
2023-01-14 20:19:03.880309,130393,125063
2023-01-14 20:19:03.900314,130492,124878
2023-01-14 20:19:03.920317,130420,125063
2023-01-14 20:19:03.94034,130497,124853
2023-01-14 20:19:03.960318,130430,125059
2023-01-14 20:19:03.980316,130484,124808
2023-01-14 20:19:04.000321,130462,125077
2023-01-14 20:19:04.020318,130464,124741
2023-01-14 20:19:04.040332,130486,125110
2023-01-14 20:19:04.060322,130454,124743
2023-01-14 20:19:04.080322,130485,125096
2023-01-14 20:19:04.10032,130283,124670
2023-01-14 20:19:04.120318,130477,125066
2023-01-14 20:19:04.140329,130155,124590
2023-01-14 20:19:04.160317,130478,125036
2023-01-14 20:19:04.180315,130199,124587
2023-01-14 20:19:04.200333,130487,125025
2023-01-14 20:19:04.220319,130238,124599
2023-01-14 20:19:04.240359,130499,125040
2023-01-14 20:19:04.260322,130244,124583
2023-01-14 20:19:04.280321,130518,125052
2023-01-14 20:19:04.300321,130283,124607
2023-01-14 20:19:04.320316,130523,125065
2023-01-14 20:19:04.340329,130321,124667
2023-01-14 20:19:04.360318,130538,125089
2023-01-14 20:19:04.380316,130325,124689
2023-01-14 20:19:04.400321,130558,125114
2023-01-14 20:19:04.42035,130317,124696
2023-01-14 20:19:04.440329,130562,125090
2023-01-14 20:19:04.460324,130330,124669
2023-01-14 20:19:04.48032,130538,125042
2023-01-14 20:19:04.500321,130343,124675
2023-01-14 20:19:04.520317,130533,125040
2023-01-14 20:19:04.540331,130336,124628
2023-01-14 20:19:04.560318,130368,124942
2023-01-14 20:19:04.580314,130330,124564
2023-01-14 20:19:04.60032,130181,124814
2023-01-14 20:19:04.620316,130313,124497
2023-01-14 20:19:04.640329,130231,124824
2023-01-14 20:19:04.660322,130330,124530
2023-01-14 20:19:04.680321,130339,124893
2023-01-14 20:19:04.700341,130371,124584
2023-01-14 20:19:04.720317,130386,124930
2023-01-14 20:19:04.740332,130408,124625
2023-01-14 20:19:04.760318,130420,124938
2023-01-14 20:19:04.780314,130426,124650
2023-01-14 20:19:04.80032,130443,124941
2023-01-14 20:19:04.820316,130389,124693
2023-01-14 20:19:04.840329,130442,124920
2023-01-14 20:19:04.86032,130074,124567
2023-01-14 20:19:04.880319,130404,124852
2023-01-14 20:19:04.900318,129998,124549
2023-01-14 20:19:04.92032,130381,124784
2023-01-14 20:19:04.940331,130113,124589
2023-01-14 20:19:04.960316,130379,124742
2023-01-14 20:19:04.980315,130196,124628
2023-01-14 20:19:05.00032,130380,124726
2023-01-14 20:19:05.020317,130245,124607
2023-01-14 20:19:05.040329,130386,124736
2023-01-14 20:19:05.060324,130294,124618
2023-01-14 20:19:05.08032,130412,124770
2023-01-14 20:19:05.10032,130412,124615
2023-01-14 20:19:05.120316,130442,124818
2023-01-14 20:19:05.140328,130442,124818
2023-01-14 20:19:05.160335,130492,124878
2023-01-14 20:19:05.180314,130492,124878
2023-01-14 20:19:05.200319,130497,124853
2023-01-14 20:19:05.220315,130497,124853
2023-01-14 20:19:05.240326,130484,124808
2023-01-14 20:19:05.260317,130484,124808
2023-01-14 20:19:05.280322,130464,124741
2023-01-14 20:19:05.30032,130464,124741
2023-01-14 20:19:05.320317,130464,124741
2023-01-14 20:19:05.340329,130454,124743
2023-01-14 20:19:05.360316,130339,124634
2023-01-14 20:19:05.380314,130283,124670
2023-01-14 20:19:05.40032,130367,124646
2023-01-14 20:19:05.420317,130155,124590
2023-01-14 20:19:05.440328,130417,124691
2023-01-14 20:19:05.460321,130199,124587
2023-01-14 20:19:05.480316,130445,124694
2023-01-14 20:19:05.500319,130238,124599
2023-01-14 20:19:05.520316,130450,124715
2023-01-14 20:19:05.54033,130244,124583
2023-01-14 20:19:05.560315,130456,124767
2023-01-14 20:19:05.580313,130283,124607
2023-01-14 20:19:05.60032,130400,124718
2023-01-14 20:19:05.620341,130321,124667
2023-01-14 20:19:05.640332,130100,124463
2023-01-14 20:19:05.66032,130325,124689
2023-01-14 20:19:05.68032,129964,124476
2023-01-14 20:19:05.700318,130317,124696
2023-01-14 20:19:05.720317,130112,124579
2023-01-14 20:19:05.74033,130330,124669
2023-01-14 20:19:05.760326,130180,124570
2023-01-14 20:19:05.780315,130343,124675
2023-01-14 20:19:05.800318,130205,124518
2023-01-14 20:19:05.820316,130336,124628
2023-01-14 20:19:05.84033,130197,124503
2023-01-14 20:19:05.860321,130330,124564
2023-01-14 20:19:05.88032,130240,124526
2023-01-14 20:19:05.900319,130313,124497
2023-01-14 20:19:05.920318,130197,124555
2023-01-14 20:19:05.940331,130330,124530
2023-01-14 20:19:05.960317,130205,124572
2023-01-14 20:19:05.980314,130371,124584
2023-01-14 20:19:06.000316,130259,124594
2023-01-14 20:19:06.020317,130408,124625
2023-01-14 20:19:06.040329,130332,124619
2023-01-14 20:19:06.060321,130426,124650
2023-01-14 20:19:06.080319,130362,124618
2023-01-14 20:19:06.100318,130389,124693
2023-01-14 20:19:06.120314,130431,124606
2023-01-14 20:19:06.140329,130074,124567
2023-01-14 20:19:06.160315,130460,124611
2023-01-14 20:19:06.180313,129998,124549
2023-01-14 20:19:06.200329,130490,124623
2023-01-14 20:19:06.220319,130113,124589
2023-01-14 20:19:06.240336,130469,124580
2023-01-14 20:19:06.260316,130196,124628
2023-01-14 20:19:06.280314,130452,124521
2023-01-14 20:19:06.300318,130245,124607
2023-01-14 20:19:06.320314,130427,124494
2023-01-14 20:19:06.340326,130294,124618
2023-01-14 20:19:06.360658,130474,124543
2023-01-14 20:19:06.380317,130302,124615
2023-01-14 20:19:06.40032,130424,124555
2023-01-14 20:19:06.420317,130280,124586
2023-01-14 20:19:06.44032,130065,124371
2023-01-14 20:19:06.460315,130265,124560
2023-01-14 20:19:06.480312,130002,124306
2023-01-14 20:19:06.50031,130264,124573
2023-01-14 20:19:06.520309,130122,124327
2023-01-14 20:19:06.540327,130310,124617
2023-01-14 20:19:06.560315,130180,124346
2023-01-14 20:19:06.580315,130464,124741
2023-01-14 20:19:06.600318,130198,124324
2023-01-14 20:19:06.620316,130339,124634
2023-01-14 20:19:06.64033,130241,124344
2023-01-14 20:19:06.660319,130367,124646
2023-01-14 20:19:06.680319,130271,124371
2023-01-14 20:19:06.700317,130417,124691
2023-01-14 20:19:06.720315,130261,124380
2023-01-14 20:19:06.740327,130445,124694
2023-01-14 20:19:06.760315,130250,124334
2023-01-14 20:19:06.780315,130450,124715
2023-01-14 20:19:06.800317,130252,124312
2023-01-14 20:19:06.820316,130456,124767
2023-01-14 20:19:06.840329,130255,124274
2023-01-14 20:19:06.860318,130400,124718
2023-01-14 20:19:06.880319,130245,124231
2023-01-14 20:19:06.900316,130100,124463
2023-01-14 20:19:06.920314,130260,124212
2023-01-14 20:19:06.940327,129964,124476
2023-01-14 20:19:06.960317,130278,124227
2023-01-14 20:19:06.980315,130112,124579
2023-01-14 20:19:07.000313,130314,124292
2023-01-14 20:19:07.020315,130180,124570
2023-01-14 20:19:07.040329,130324,124325
2023-01-14 20:19:07.06032,130205,124518
2023-01-14 20:19:07.080318,130316,124299
2023-01-14 20:19:07.100318,130197,124503
2023-01-14 20:19:07.120315,130313,124274
2023-01-14 20:19:07.140326,130240,124526
2023-01-14 20:19:07.160316,130323,124272
2023-01-14 20:19:07.180318,130197,124555
2023-01-14 20:19:07.20032,130298,124292
2023-01-14 20:19:07.220316,130205,124572
2023-01-14 20:19:07.240326,129915,124176
2023-01-14 20:19:07.26032,130259,124594
2023-01-14 20:19:07.280314,129618,124138
2023-01-14 20:19:07.300318,130332,124619
2023-01-14 20:19:07.320314,129782,124206
2023-01-14 20:19:07.340329,130362,124618
2023-01-14 20:19:07.360318,129943,124213
2023-01-14 20:19:07.380315,130431,124606
2023-01-14 20:19:07.400316,130024,124244
2023-01-14 20:19:07.420313,130460,124611
2023-01-14 20:19:07.440326,130109,124310
2023-01-14 20:19:07.460319,130490,124623
2023-01-14 20:19:07.480318,130142,124338
2023-01-14 20:19:07.500317,130469,124580
2023-01-14 20:19:07.520314,130128,124315
2023-01-14 20:19:07.540326,130452,124521
2023-01-14 20:19:07.560329,130135,124302
2023-01-14 20:19:07.580323,130427,124494
2023-01-14 20:19:07.600315,130176,124310
2023-01-14 20:19:07.620316,130474,124543
2023-01-14 20:19:07.640329,130217,124340
2023-01-14 20:19:07.660319,130424,124555
2023-01-14 20:19:07.680396,130255,124344
2023-01-14 20:19:07.700318,130065,124371
2023-01-14 20:19:07.720315,130286,124356
2023-01-14 20:19:07.740327,130002,124306
2023-01-14 20:19:07.760317,130305,124365
2023-01-14 20:19:07.780313,130122,124327
2023-01-14 20:19:07.800318,130309,124333
2023-01-14 20:19:07.820315,130180,124346
2023-01-14 20:19:07.840326,130311,124314
2023-01-14 20:19:07.860318,130198,124324
2023-01-14 20:19:07.880317,130328,124316
2023-01-14 20:19:07.900316,130241,124344
2023-01-14 20:19:07.92033,130271,124371
2023-01-14 20:19:07.942705,130344,124270
2023-01-14 20:19:07.960349,130261,124380
2023-01-14 20:19:07.981543,130295,124269
2023-01-14 20:19:08.000334,130250,124334
2023-01-14 20:19:08.020355,129934,124121
2023-01-14 20:19:08.04031,130252,124312
2023-01-14 20:19:08.060307,129763,124075
2023-01-14 20:19:08.080319,130255,124274
2023-01-14 20:19:08.100301,129903,124127
2023-01-14 20:19:08.120286,130245,124231
2023-01-14 20:19:08.140287,130000,124192
2023-01-14 20:19:08.160281,130260,124212
2023-01-14 20:19:08.18028,130058,124247
2023-01-14 20:19:08.200288,130278,124227
2023-01-14 20:19:08.220288,130140,124279
2023-01-14 20:19:08.240285,130314,124292
2023-01-14 20:19:08.260284,130176,124274
2023-01-14 20:19:08.280286,130324,124325
2023-01-14 20:19:08.300284,130164,124248
2023-01-14 20:19:08.320284,130316,124299
2023-01-14 20:19:08.34029,130173,124240
2023-01-14 20:19:08.360284,130313,124274
2023-01-14 20:19:08.380285,130181,124233
2023-01-14 20:19:08.400298,130323,124272
2023-01-14 20:19:08.420286,130226,124221
2023-01-14 20:19:08.440292,130298,124292
2023-01-14 20:19:08.460284,130245,124238
2023-01-14 20:19:08.480281,129915,124176
2023-01-14 20:19:08.500284,130285,124289
2023-01-14 20:19:08.520283,129618,124138
2023-01-14 20:19:08.540287,130327,124326
2023-01-14 20:19:08.560282,129782,124206
2023-01-14 20:19:08.580285,130336,124335
2023-01-14 20:19:08.600284,129943,124213
2023-01-14 20:19:08.620285,130366,124344
2023-01-14 20:19:08.640287,130024,124244
2023-01-14 20:19:08.6603,130385,124345
2023-01-14 20:19:08.680284,130109,124310
2023-01-14 20:19:08.700282,130371,124305
2023-01-14 20:19:08.720285,130142,124338
2023-01-14 20:19:08.74033,130372,124252
2023-01-14 20:19:08.760304,130128,124315
2023-01-14 20:19:08.780305,130357,124223
2023-01-14 20:19:08.800301,130135,124302
2023-01-14 20:19:08.820303,130383,124225
2023-01-14 20:19:08.840369,130176,124310
2023-01-14 20:19:08.860293,130309,124221
2023-01-14 20:19:08.880293,130217,124340
2023-01-14 20:19:08.900295,129878,124000
2023-01-14 20:19:08.920296,130255,124344
2023-01-14 20:19:08.940294,129752,123929
2023-01-14 20:19:08.960306,130286,124356
2023-01-14 20:19:08.980299,129909,124000
2023-01-14 20:19:09.000295,130305,124365
2023-01-14 20:19:09.020298,130007,124045
2023-01-14 20:19:09.040295,130309,124333
2023-01-14 20:19:09.060325,130077,124048
2023-01-14 20:19:09.080292,130311,124314
2023-01-14 20:19:09.100292,130140,124075
2023-01-14 20:19:09.120294,130328,124316
2023-01-14 20:19:09.140294,130167,124105
2023-01-14 20:19:09.160296,130336,124290
2023-01-14 20:19:09.180297,130176,124128
2023-01-14 20:19:09.200294,130344,124270
2023-01-14 20:19:09.220296,130185,124127
2023-01-14 20:19:09.240298,130295,124269
2023-01-14 20:19:09.260293,130179,124082
2023-01-14 20:19:09.280291,129934,124121
2023-01-14 20:19:09.300292,130197,124057
2023-01-14 20:19:09.320292,129763,124075
2023-01-14 20:19:09.340294,130218,124063
2023-01-14 20:19:09.360295,129903,124127
2023-01-14 20:19:09.380298,130254,124091
2023-01-14 20:19:09.400303,130000,124192
2023-01-14 20:19:09.420297,130254,124052
2023-01-14 20:19:09.440295,130058,124247
2023-01-14 20:19:09.460291,130251,124017
2023-01-14 20:19:09.480291,130140,124279
2023-01-14 20:19:09.500293,130255,123991
2023-01-14 20:19:09.520302,130176,124274
2023-01-14 20:19:09.540294,130258,123983
2023-01-14 20:19:09.560297,130164,124248
2023-01-14 20:19:09.580298,130271,123972
2023-01-14 20:19:09.600294,130173,124240
2023-01-14 20:19:09.620298,130292,123978
2023-01-14 20:19:09.640298,130181,124233
2023-01-14 20:19:09.660289,130298,123978
2023-01-14 20:19:09.680289,130226,124221
2023-01-14 20:19:09.700292,130321,124013
2023-01-14 20:19:09.720292,130245,124238
2023-01-14 20:19:09.740294,130345,124012
2023-01-14 20:19:09.760295,130285,124289
2023-01-14 20:19:09.780297,130304,123973
2023-01-14 20:19:09.800294,130327,124326
2023-01-14 20:19:09.820297,130044,123826
2023-01-14 20:19:09.840296,130336,124335
2023-01-14 20:19:09.860291,129862,123745
2023-01-14 20:19:09.880291,130366,124344
2023-01-14 20:19:09.900292,129984,123776
2023-01-14 20:19:09.920291,130385,124345
2023-01-14 20:19:09.940295,130075,123847
2023-01-14 20:19:09.960295,130371,124305
2023-01-14 20:19:09.980297,130097,123833
2023-01-14 20:19:10.000296,130372,124252
2023-01-14 20:19:10.020298,130133,123817
2023-01-14 20:19:10.040306,130357,124223
2023-01-14 20:19:10.060296,130131,123811
2023-01-14 20:19:10.080295,130383,124225
2023-01-14 20:19:10.100297,130100,123758
2023-01-14 20:19:10.120315,130309,124221
2023-01-14 20:19:10.140316,130092,123718
2023-01-14 20:19:10.160297,129878,124000
2023-01-14 20:19:10.180313,130099,123735
2023-01-14 20:19:10.200301,129752,123929
2023-01-14 20:19:10.2203,130136,123758
2023-01-14 20:19:10.240316,129909,124000
2023-01-14 20:19:10.260291,130173,123810
2023-01-14 20:19:10.28029,130007,124045
2023-01-14 20:19:10.300292,130171,123853
2023-01-14 20:19:10.320291,130077,124048
2023-01-14 20:19:10.340293,130183,123887
2023-01-14 20:19:10.360293,130140,124075
2023-01-14 20:19:10.380332,130196,123882
2023-01-14 20:19:10.400295,130167,124105
2023-01-14 20:19:10.420295,130196,123877
2023-01-14 20:19:10.440293,130176,124128
2023-01-14 20:19:10.46031,130196,123829
2023-01-14 20:19:10.480313,130185,124127
2023-01-14 20:19:10.500295,130212,123861
2023-01-14 20:19:10.520295,130179,124082
2023-01-14 20:19:10.540296,130263,123875
2023-01-14 20:19:10.560355,130197,124057
2023-01-14 20:19:10.580293,130302,123913
2023-01-14 20:19:10.600296,130218,124063
2023-01-14 20:19:10.620297,130174,123911
2023-01-14 20:19:10.640296,130254,124091
2023-01-14 20:19:10.660294,129862,123776
2023-01-14 20:19:10.680292,130254,124052
2023-01-14 20:19:10.700309,129841,123793
2023-01-14 20:19:10.720296,130251,124017
2023-01-14 20:19:10.740294,129969,123864
2023-01-14 20:19:10.760293,130255,123991
2023-01-14 20:19:10.780294,130080,123911
2023-01-14 20:19:10.800295,130258,123983
2023-01-14 20:19:10.820296,130135,123914
2023-01-14 20:19:10.840302,130271,123972
2023-01-14 20:19:10.860297,130184,123959
2023-01-14 20:19:10.880301,130292,123978
2023-01-14 20:19:10.9003,130203,123913
2023-01-14 20:19:10.920299,130298,123978
2023-01-14 20:19:10.940301,130189,123894
2023-01-14 20:19:10.960315,130321,124013
2023-01-14 20:19:10.980309,130201,123903
2023-01-14 20:19:11.00031,130345,124012
2023-01-14 20:19:11.020313,130192,123868
2023-01-14 20:19:11.040312,130304,123973
2023-01-14 20:19:11.060373,130198,123849
2023-01-14 20:19:11.080315,130044,123826
2023-01-14 20:19:11.100315,130216,123851
2023-01-14 20:19:11.120314,129862,123745
2023-01-14 20:19:11.140317,130216,123893
2023-01-14 20:19:11.160312,129984,123776
2023-01-14 20:19:11.180312,130247,123925
2023-01-14 20:19:11.200313,130075,123847
2023-01-14 20:19:11.220311,130280,123929
2023-01-14 20:19:11.240309,130097,123833
2023-01-14 20:19:11.260314,130330,123944
2023-01-14 20:19:11.280346,130133,123817
2023-01-14 20:19:11.300314,130350,123935
2023-01-14 20:19:11.320312,130131,123811
2023-01-14 20:19:11.340312,130414,123941
2023-01-14 20:19:11.360311,130100,123758
2023-01-14 20:19:11.380345,130183,123845
2023-01-14 20:19:11.400313,130092,123718
2023-01-14 20:19:11.420311,129904,123724
2023-01-14 20:19:11.440308,130099,123735
2023-01-14 20:19:11.460309,129944,123758
2023-01-14 20:19:11.480309,130136,123758
2023-01-14 20:19:11.500312,130026,123818
2023-01-14 20:19:11.520311,130173,123810
2023-01-14 20:19:11.540319,130070,123847
2023-01-14 20:19:11.560313,130171,123853
2023-01-14 20:19:11.58031,130136,123851
2023-01-14 20:19:11.600313,130183,123887
2023-01-14 20:19:11.620311,130208,123891
2023-01-14 20:19:11.640309,130196,123882
2023-01-14 20:19:11.660311,130223,123912
2023-01-14 20:19:11.680315,130196,123877
2023-01-14 20:19:11.700313,130175,123912
2023-01-14 20:19:11.720314,130196,123829
2023-01-14 20:19:11.740314,130178,123908
2023-01-14 20:19:11.760313,130212,123861
2023-01-14 20:19:11.780313,130216,123893
2023-01-14 20:19:11.800312,130263,123875
2023-01-14 20:19:11.820311,130246,123915
2023-01-14 20:19:11.840312,130302,123913
2023-01-14 20:19:11.860311,130282,123935
2023-01-14 20:19:11.880312,130174,123911
2023-01-14 20:19:11.900314,130313,123950
2023-01-14 20:19:11.920312,129862,123776
2023-01-14 20:19:11.940314,130341,123958
2023-01-14 20:19:11.960315,129841,123793
2023-01-14 20:19:11.980313,130359,123951
2023-01-14 20:19:12.000313,129969,123864
2023-01-14 20:19:12.020311,130353,123925
2023-01-14 20:19:12.040309,130080,123911
2023-01-14 20:19:12.060309,130369,123904
2023-01-14 20:19:12.080312,130135,123914
2023-01-14 20:19:12.100312,130377,123913
2023-01-14 20:19:12.120313,130184,123959
2023-01-14 20:19:12.140309,130235,123863
2023-01-14 20:19:12.160314,130203,123913
2023-01-14 20:19:12.180312,129854,123674
2023-01-14 20:19:12.200314,130189,123894
2023-01-14 20:19:12.220312,129821,123651
2023-01-14 20:19:12.240308,130201,123903
2023-01-14 20:19:12.26031,129934,123699
2023-01-14 20:19:12.280314,130192,123868
2023-01-14 20:19:12.300345,130039,123748
2023-01-14 20:19:12.320312,130198,123849
2023-01-14 20:19:12.340308,130103,123767
2023-01-14 20:19:12.360314,130216,123851
2023-01-14 20:19:12.380308,130177,123809
2023-01-14 20:19:12.400342,130216,123893
2023-01-14 20:19:12.420308,130177,123787
2023-01-14 20:19:12.440307,130247,123925
2023-01-14 20:19:12.460309,130166,123771
2023-01-14 20:19:12.480313,130280,123929
2023-01-14 20:19:12.500388,130154,123740
2023-01-14 20:19:12.520312,130330,123944
2023-01-14 20:19:12.54031,130166,123691
2023-01-14 20:19:12.560314,130350,123935
2023-01-14 20:19:12.580311,130180,123659
2023-01-14 20:19:12.600312,130414,123941
2023-01-14 20:19:12.620309,130218,123712
2023-01-14 20:19:12.640307,130183,123845
2023-01-14 20:19:12.660309,130253,123766
2023-01-14 20:19:12.680312,129904,123724
2023-01-14 20:19:12.700313,130286,123787
2023-01-14 20:19:12.720312,129944,123758
2023-01-14 20:19:12.74031,130288,123771
2023-01-14 20:19:12.760309,130026,123818
2023-01-14 20:19:12.780312,130294,123741
2023-01-14 20:19:12.800312,130070,123847
2023-01-14 20:19:12.820307,130292,123718
2023-01-14 20:19:12.840307,130136,123851
2023-01-14 20:19:12.860308,130309,123705
2023-01-14 20:19:12.88031,130208,123891
2023-01-14 20:19:12.900315,130320,123708
2023-01-14 20:19:12.920313,130223,123912
2023-01-14 20:19:12.940309,130197,123646
2023-01-14 20:19:12.960346,130175,123912
2023-01-14 20:19:12.980311,129821,123459
2023-01-14 20:19:13.000311,130178,123908
2023-01-14 20:19:13.020308,129814,123457
2023-01-14 20:19:13.040307,130216,123893
2023-01-14 20:19:13.060309,129935,123528
2023-01-14 20:19:13.080313,130246,123915
2023-01-14 20:19:13.100311,130011,123588
2023-01-14 20:19:13.12031,130282,123935
2023-01-14 20:19:13.140308,130060,123630
2023-01-14 20:19:13.160308,130313,123950
2023-01-14 20:19:13.180311,130118,123687
2023-01-14 20:19:13.20031,130341,123958
2023-01-14 20:19:13.220309,130115,123688
2023-01-14 20:19:13.24031,130359,123951
2023-01-14 20:19:13.260305,130084,123676
2023-01-14 20:19:13.280311,130353,123925
2023-01-14 20:19:13.300312,130085,123668
2023-01-14 20:19:13.32031,130369,123904
2023-01-14 20:19:13.340311,130137,123689
2023-01-14 20:19:13.360314,130377,123913
2023-01-14 20:19:13.380311,130180,123723
2023-01-14 20:19:13.40033,130235,123863
2023-01-14 20:19:13.420317,130221,123741
2023-01-14 20:19:13.440307,129854,123674
2023-01-14 20:19:13.460304,130256,123779
2023-01-14 20:19:13.480307,129821,123651
2023-01-14 20:19:13.500311,130290,123797
2023-01-14 20:19:13.520311,129934,123699
2023-01-14 20:19:13.540308,130306,123819
2023-01-14 20:19:13.560309,130039,123748
2023-01-14 20:19:13.580311,130323,123832
2023-01-14 20:19:13.600311,130103,123767
2023-01-14 20:19:13.620308,130339,123823
2023-01-14 20:19:13.640305,130177,123809
2023-01-14 20:19:13.660323,130363,123825
2023-01-14 20:19:13.680327,130177,123787
2023-01-14 20:19:13.70031,130226,123778
2023-01-14 20:19:13.720314,130166,123771
2023-01-14 20:19:13.740311,129691,123540
2023-01-14 20:19:13.760312,130154,123740
2023-01-14 20:19:13.780311,129331,123406
2023-01-14 20:19:13.800306,130166,123691
2023-01-14 20:19:13.820371,129451,123463
2023-01-14 20:19:13.840308,130180,123659
2023-01-14 20:19:13.860308,129614,123516
2023-01-14 20:19:13.880309,130218,123712
2023-01-14 20:19:13.900311,129694,123533
2023-01-14 20:19:13.920344,130253,123766
2023-01-14 20:19:13.940308,129810,123576
2023-01-14 20:19:13.960313,130286,123787
2023-01-14 20:19:13.980309,129872,123603
2023-01-14 20:19:14.00031,130288,123771
2023-01-14 20:19:14.020342,129863,123586
2023-01-14 20:19:14.040306,130294,123741
2023-01-14 20:19:14.060309,129891,123588
2023-01-14 20:19:14.080314,130292,123718
2023-01-14 20:19:14.100312,129931,123599
2023-01-14 20:19:14.120352,130309,123705
2023-01-14 20:19:14.140313,129984,123613
2023-01-14 20:19:14.160314,130320,123708
2023-01-14 20:19:14.180311,130038,123639
2023-01-14 20:19:14.200312,130197,123646
2023-01-14 20:19:14.220315,130088,123653
2023-01-14 20:19:14.240308,129821,123459
2023-01-14 20:19:14.260303,130131,123671
2023-01-14 20:19:14.280306,129814,123457
2023-01-14 20:19:14.30031,130159,123697
2023-01-14 20:19:14.32031,129935,123528
2023-01-14 20:19:14.340308,130158,123693
2023-01-14 20:19:14.360313,130011,123588
2023-01-14 20:19:14.38031,130175,123674
2023-01-14 20:19:14.40031,130060,123630
2023-01-14 20:19:14.420317,130194,123663
2023-01-14 20:19:14.440364,130118,123687
2023-01-14 20:19:14.460307,130218,123666
2023-01-14 20:19:14.480311,130115,123688
2023-01-14 20:19:14.50031,130082,123616
2023-01-14 20:19:14.520309,130084,123676
2023-01-14 20:19:14.540313,129438,123331
2023-01-14 20:19:14.56031,130085,123668
2023-01-14 20:19:14.580306,129139,123211
2023-01-14 20:19:14.600308,130137,123689
2023-01-14 20:19:14.620312,129293,123308
2023-01-14 20:19:14.64031,130180,123723
2023-01-14 20:19:14.660305,129400,123396
2023-01-14 20:19:14.680309,130221,123741
2023-01-14 20:19:14.700303,129533,123453
2023-01-14 20:19:14.720311,130256,123779
2023-01-14 20:19:14.740313,129691,123490
2023-01-14 20:19:14.760313,130290,123797
2023-01-14 20:19:14.78031,129786,123508
2023-01-14 20:19:14.800309,130306,123819
2023-01-14 20:19:14.820307,129829,123542
2023-01-14 20:19:14.840309,130323,123832
2023-01-14 20:19:14.860307,129846,123544
2023-01-14 20:19:14.880315,130339,123823
2023-01-14 20:19:14.900308,129909,123523
2023-01-14 20:19:14.920312,130363,123825
2023-01-14 20:19:14.94031,129985,123515
2023-01-14 20:19:14.960313,130226,123778
2023-01-14 20:19:14.980312,130031,123536
2023-01-14 20:19:15.00031,129691,123540
2023-01-14 20:19:15.02031,130071,123538
2023-01-14 20:19:15.040308,129331,123406
2023-01-14 20:19:15.060304,130090,123535
2023-01-14 20:19:15.080306,129451,123463
2023-01-14 20:19:15.100311,130109,123486
2023-01-14 20:19:15.120309,129614,123516
2023-01-14 20:19:15.140346,130122,123472
2023-01-14 20:19:15.160312,129694,123533
2023-01-14 20:19:15.180313,130124,123439
2023-01-14 20:19:15.200311,129810,123576
2023-01-14 20:19:15.220311,130130,123412
2023-01-14 20:19:15.240307,129872,123603
2023-01-14 20:19:15.260309,130145,123415
2023-01-14 20:19:15.280309,129863,123586
2023-01-14 20:19:15.300307,130168,123445
2023-01-14 20:19:15.32031,129891,123588
2023-01-14 20:19:15.340314,130028,123391
2023-01-14 20:19:15.360313,129931,123599
2023-01-14 20:19:15.380307,129657,123182
2023-01-14 20:19:15.400307,129984,123613
2023-01-14 20:19:15.420309,129657,123173
2023-01-14 20:19:15.440307,130038,123639
2023-01-14 20:19:15.460304,129781,123253
2023-01-14 20:19:15.48031,130088,123653
2023-01-14 20:19:15.50031,130088,123311
2023-01-14 20:19:15.52031,130131,123671
2023-01-14 20:19:15.540312,130131,123347
2023-01-14 20:19:15.560313,130159,123697
2023-01-14 20:19:15.580309,130159,123697
2023-01-14 20:19:15.60031,130158,123693
2023-01-14 20:19:15.62031,130158,123693
2023-01-14 20:19:15.640305,130175,123674
2023-01-14 20:19:15.660305,130175,123674
2023-01-14 20:19:15.680311,130194,123663
2023-01-14 20:19:15.700309,130194,123663
2023-01-14 20:19:15.720309,130218,123666
2023-01-14 20:19:15.740311,130218,123666
2023-01-14 20:19:15.760315,130082,123616
2023-01-14 20:19:15.78031,130082,123616
2023-01-14 20:19:15.800308,129988,123406
2023-01-14 20:19:15.820309,129438,123331
2023-01-14 20:19:15.840306,130047,123467
2023-01-14 20:19:15.860307,129139,123211
2023-01-14 20:19:15.880305,130087,123513
2023-01-14 20:19:15.9003,129293,123308
2023-01-14 20:19:15.920307,130136,123559
2023-01-14 20:19:15.940358,129400,123396
2023-01-14 20:19:15.960308,130174,123555
2023-01-14 20:19:15.980307,129533,123453
2023-01-14 20:19:16.000305,130182,123624
2023-01-14 20:19:16.020308,129691,123490
2023-01-14 20:19:16.040311,130193,123646
2023-01-14 20:19:16.060334,129786,123508
2023-01-14 20:19:16.080306,130221,123672
2023-01-14 20:19:16.100308,129829,123542
2023-01-14 20:19:16.120307,130277,123664
2023-01-14 20:19:16.140311,129846,123544
2023-01-14 20:19:16.160343,130294,123670
2023-01-14 20:19:16.180309,129909,123523
2023-01-14 20:19:16.200312,130109,123575
2023-01-14 20:19:16.220309,129985,123515
2023-01-14 20:19:16.240307,129432,123283
2023-01-14 20:19:16.260305,130031,123536
2023-01-14 20:19:16.280324,129134,123163
2023-01-14 20:19:16.30031,130071,123538
2023-01-14 20:19:16.32031,129259,123250
2023-01-14 20:19:16.340307,130090,123535
2023-01-14 20:19:16.36031,129424,123309
2023-01-14 20:19:16.380318,130109,123486
2023-01-14 20:19:16.400333,129546,123340
2023-01-14 20:19:16.420308,130122,123472
2023-01-14 20:19:16.440307,129686,123394
2023-01-14 20:19:16.460305,130124,123439
2023-01-14 20:19:16.480308,129755,123424
2023-01-14 20:19:16.500309,130130,123412
2023-01-14 20:19:16.520309,129758,123398
2023-01-14 20:19:16.540312,130145,123415
2023-01-14 20:19:16.560306,129806,123372
2023-01-14 20:19:16.580306,130168,123445
2023-01-14 20:19:16.600305,129909,123381
2023-01-14 20:19:16.620309,130028,123391
2023-01-14 20:19:16.640306,129942,123414
2023-01-14 20:19:16.660305,129657,123182
2023-01-14 20:19:16.680307,130000,123447
2023-01-14 20:19:16.700311,129657,123173
2023-01-14 20:19:16.72031,130026,123489
2023-01-14 20:19:16.740313,129781,123253
2023-01-14 20:19:16.76031,130048,123521
2023-01-14 20:19:16.780308,129838,123311
2023-01-14 20:19:16.800307,130059,123552
2023-01-14 20:19:16.820307,129880,123347
2023-01-14 20:19:16.840309,130079,123551
2023-01-14 20:19:16.860309,129967,123417
2023-01-14 20:19:16.880305,130102,123560
2023-01-14 20:19:16.900309,129967,123445
2023-01-14 20:19:16.920308,130112,123572
2023-01-14 20:19:16.940311,129918,123422
2023-01-14 20:19:16.960309,130136,123592
2023-01-14 20:19:16.980305,129925,123384
2023-01-14 20:19:17.000309,130169,123620
2023-01-14 20:19:17.020306,129965,123389
2023-01-14 20:19:17.040306,130203,123616
2023-01-14 20:19:17.060306,129988,123406
2023-01-14 20:19:17.080338,130225,123610
2023-01-14 20:19:17.100309,130047,123467
2023-01-14 20:19:17.120307,129819,123415
2023-01-14 20:19:17.140314,130087,123513
2023-01-14 20:19:17.160309,129102,123094
2023-01-14 20:19:17.180307,130136,123559
2023-01-14 20:19:17.200307,129065,123084
2023-01-14 20:19:17.220308,130174,123555
2023-01-14 20:19:17.240308,129276,123188
2023-01-14 20:19:17.260302,130182,123624
2023-01-14 20:19:17.280305,129436,123257
2023-01-14 20:19:17.30031,130193,123646
2023-01-14 20:19:17.32031,129562,123315
2023-01-14 20:19:17.340312,130221,123672
2023-01-14 20:19:17.366423,129684,123356
2023-01-14 20:19:17.380324,130277,123664
2023-01-14 20:19:17.400296,129721,123365
2023-01-14 20:19:17.420299,130294,123670
2023-01-14 20:19:17.440294,129734,123345
2023-01-14 20:19:17.460288,130109,123575
2023-01-14 20:19:17.480293,129778,123361
2023-01-14 20:19:17.500305,129432,123283
2023-01-14 20:19:17.520306,129827,123371
2023-01-14 20:19:17.540313,129134,123163
2023-01-14 20:19:17.560309,129912,123402
2023-01-14 20:19:17.580307,129259,123250
2023-01-14 20:19:17.600308,129971,123435
2023-01-14 20:19:17.620303,129424,123309
2023-01-14 20:19:17.640308,130050,123455
2023-01-14 20:19:17.660304,129546,123340
2023-01-14 20:19:17.680308,130099,123497
2023-01-14 20:19:17.700307,129686,123394
2023-01-14 20:19:17.720307,130137,123504
2023-01-14 20:19:17.740311,129755,123424
2023-01-14 20:19:17.760308,130174,123527
2023-01-14 20:19:17.780309,129758,123398
2023-01-14 20:19:17.800308,130198,123525
2023-01-14 20:19:17.820304,129806,123372
2023-01-14 20:19:17.840306,130222,123484
2023-01-14 20:19:17.860304,129909,123381
2023-01-14 20:19:17.880306,130224,123454
2023-01-14 20:19:17.920315,130251,123426
2023-01-14 20:19:17.940351,130000,123447
2023-01-14 20:19:17.960339,130274,123429
2023-01-14 20:19:17.980344,130026,123489
2023-01-14 20:19:18.000304,130297,123459
2023-01-14 20:19:18.020333,130048,123521
2023-01-14 20:19:18.040297,130150,123391
2023-01-14 20:19:18.060297,130059,123552
2023-01-14 20:19:18.080289,129695,123210
2023-01-14 20:19:18.100273,130079,123551
2023-01-14 20:19:18.120274,129587,123184
2023-01-14 20:19:18.140274,130102,123560
2023-01-14 20:19:18.160273,129784,123226
2023-01-14 20:19:18.180274,130112,123572
2023-01-14 20:19:18.200279,129902,123250
2023-01-14 20:19:18.220278,130136,123592
2023-01-14 20:19:18.240276,129958,123246
2023-01-14 20:19:18.260275,130169,123620
2023-01-14 20:19:18.280274,130015,123293
2023-01-14 20:19:18.300275,130203,123616
2023-01-14 20:19:18.320273,130026,123328
2023-01-14 20:19:18.340277,130225,123610
2023-01-14 20:19:18.360276,130017,123317
2023-01-14 20:19:18.380273,129819,123415
2023-01-14 20:19:18.400291,130008,123289
2023-01-14 20:19:18.420276,129102,123094
2023-01-14 20:19:18.440276,130039,123293
2023-01-14 20:19:18.460274,129065,123084
2023-01-14 20:19:18.480273,130070,123306
2023-01-14 20:19:18.500275,129276,123188
2023-01-14 20:19:18.520283,130101,123350
2023-01-14 20:19:18.540277,129436,123257
2023-01-14 20:19:18.560276,130134,123400
2023-01-14 20:19:18.580276,129562,123315
2023-01-14 20:19:18.600273,130181,123435
2023-01-14 20:19:18.620272,129684,123356
2023-01-14 20:19:18.640274,130204,123460
2023-01-14 20:19:18.660275,129721,123365
2023-01-14 20:19:18.680285,130224,123463
2023-01-14 20:19:18.7003,129734,123345
2023-01-14 20:19:18.720308,130240,123459
2023-01-14 20:19:18.740311,129778,123361
2023-01-14 20:19:18.760303,130248,123457
2023-01-14 20:19:18.780308,129827,123371
2023-01-14 20:19:18.800303,130275,123459
2023-01-14 20:19:18.820305,129912,123402
2023-01-14 20:19:18.840307,130260,123468
2023-01-14 20:19:18.860308,129971,123435
2023-01-14 20:19:18.880304,129857,123281
2023-01-14 20:19:18.900338,130050,123455
2023-01-14 20:19:18.920304,129380,123068
2023-01-14 20:19:18.94031,130099,123497
2023-01-14 20:19:18.960307,129490,123119
2023-01-14 20:19:18.980306,130137,123504
2023-01-14 20:19:19.000301,129669,123211
2023-01-14 20:19:19.020304,130174,123527
2023-01-14 20:19:19.040308,129748,123235
2023-01-14 20:19:19.060306,130198,123525
2023-01-14 20:19:19.080305,129834,123271
2023-01-14 20:19:19.100307,130222,123484
2023-01-14 20:19:19.120303,129927,123316
2023-01-14 20:19:19.140307,130224,123454
2023-01-14 20:19:19.160306,129930,123312
2023-01-14 20:19:19.180306,130251,123426
2023-01-14 20:19:19.20031,129930,123290
2023-01-14 20:19:19.220303,130274,123429
2023-01-14 20:19:19.240308,129953,123278
2023-01-14 20:19:19.260306,130297,123459
2023-01-14 20:19:19.280305,130011,123301
2023-01-14 20:19:19.300305,130150,123391
2023-01-14 20:19:19.320303,130052,123307
2023-01-14 20:19:19.340308,129695,123210
2023-01-14 20:19:19.360305,130098,123321
2023-01-14 20:19:19.380301,129587,123184
2023-01-14 20:19:19.400305,130126,123329
2023-01-14 20:19:19.42031,129784,123226
2023-01-14 20:19:19.440306,130156,123352
2023-01-14 20:19:19.460315,129902,123250
2023-01-14 20:19:19.480303,130174,123382
2023-01-14 20:19:19.500306,129958,123246
2023-01-14 20:19:19.520303,130186,123414
2023-01-14 20:19:19.540309,130015,123293
2023-01-14 20:19:19.560307,130211,123445
2023-01-14 20:19:19.580304,130026,123328
2023-01-14 20:19:19.600304,130238,123450
2023-01-14 20:19:19.620302,130017,123317
2023-01-14 20:19:19.640308,130162,123410
2023-01-14 20:19:19.660306,130008,123289
2023-01-14 20:19:19.680304,129521,123098
2023-01-14 20:19:19.700306,130039,123293
2023-01-14 20:19:19.720306,128973,122870
2023-01-14 20:19:19.740308,130070,123306
2023-01-14 20:19:19.760307,129096,122941
2023-01-14 20:19:19.780305,130101,123350
2023-01-14 20:19:19.800301,129295,123050
2023-01-14 20:19:19.820303,130134,123400
2023-01-14 20:19:19.840353,129418,123114
2023-01-14 20:19:19.860306,130181,123435
2023-01-14 20:19:19.880302,129555,123194
2023-01-14 20:19:19.900306,130204,123460
2023-01-14 20:19:19.920302,129648,123243
2023-01-14 20:19:19.940309,130224,123463
2023-01-14 20:19:19.960313,129669,123256
2023-01-14 20:19:19.980306,130240,123459
2023-01-14 20:19:20.000306,129678,123242
2023-01-14 20:19:20.020304,130248,123457
2023-01-14 20:19:20.040312,129729,123225
2023-01-14 20:19:20.060311,130275,123459
2023-01-14 20:19:20.080306,129802,123252
2023-01-14 20:19:20.100307,130260,123468
2023-01-14 20:19:20.120335,129854,123282
2023-01-14 20:19:20.14031,129857,123281
2023-01-14 20:19:20.160303,129888,123303
2023-01-14 20:19:20.1803,129380,123068
2023-01-14 20:19:20.20031,129939,123309
2023-01-14 20:19:20.220334,129490,123119
2023-01-14 20:19:20.240309,129999,123293
2023-01-14 20:19:20.260302,129669,123211
2023-01-14 20:19:20.2803,130064,123260
2023-01-14 20:19:20.30033,129748,123235
2023-01-14 20:19:20.320303,130077,123220
2023-01-14 20:19:20.340312,129834,123271
2023-01-14 20:19:20.360302,130118,123220
2023-01-14 20:19:20.380303,129927,123316
2023-01-14 20:19:20.400305,130065,123188
2023-01-14 20:19:20.420302,129930,123312
2023-01-14 20:19:20.440308,129622,122940
2023-01-14 20:19:20.460306,129930,123290
2023-01-14 20:19:20.480304,129479,122854
2023-01-14 20:19:20.500305,129953,123278
2023-01-14 20:19:20.520302,129602,122946
2023-01-14 20:19:20.540307,130011,123301
2023-01-14 20:19:20.560306,129716,123001
2023-01-14 20:19:20.580305,130052,123307
2023-01-14 20:19:20.6003,129794,123037
2023-01-14 20:19:20.620302,130098,123321
2023-01-14 20:19:20.640306,129890,123095
2023-01-14 20:19:20.660305,130126,123329
2023-01-14 20:19:20.680304,129942,123147
2023-01-14 20:19:20.700299,130156,123352
2023-01-14 20:19:20.720304,129942,123123
2023-01-14 20:19:20.74031,130174,123382
2023-01-14 20:19:20.76033,129908,123131
2023-01-14 20:19:20.780304,130186,123414
2023-01-14 20:19:20.800304,129882,123184
2023-01-14 20:19:20.820301,130211,123445
2023-01-14 20:19:20.840302,129913,123204
2023-01-14 20:19:20.860306,130238,123450
2023-01-14 20:19:20.880301,129957,123190
2023-01-14 20:19:20.900306,130162,123410
2023-01-14 20:19:20.920302,130007,123176
2023-01-14 20:19:20.940308,129521,123098
2023-01-14 20:19:20.960305,130051,123213
2023-01-14 20:19:20.980304,128973,122870
2023-01-14 20:19:21.000304,130039,123174
2023-01-14 20:19:21.020299,129096,122941
2023-01-14 20:19:21.040308,130046,123172
2023-01-14 20:19:21.060302,129295,123050
2023-01-14 20:19:21.0803,130072,123205
2023-01-14 20:19:21.100306,129418,123114
2023-01-14 20:19:21.120303,130116,123245
2023-01-14 20:19:21.140298,129555,123194
2023-01-14 20:19:21.160291,129795,123135
2023-01-14 20:19:21.180293,129648,123243
2023-01-14 20:19:21.200289,128929,122831
2023-01-14 20:19:21.220294,129669,123256
2023-01-14 20:19:21.240288,128660,122735
2023-01-14 20:19:21.260287,129678,123242
2023-01-14 20:19:21.280284,128816,122798
2023-01-14 20:19:21.300286,129729,123225
2023-01-14 20:19:21.320284,128913,122839
2023-01-14 20:19:21.340283,129802,123252
2023-01-14 20:19:21.360281,129019,122886
2023-01-14 20:19:21.380281,129854,123282
2023-01-14 20:19:21.400279,129177,122955
2023-01-14 20:19:21.42028,129888,123303
2023-01-14 20:19:21.440284,129187,122978
2023-01-14 20:19:21.460286,129939,123309
2023-01-14 20:19:21.480281,129156,122946
2023-01-14 20:19:21.500284,129999,123293
2023-01-14 20:19:21.520282,129179,122946
2023-01-14 20:19:21.540345,130064,123260
2023-01-14 20:19:21.560283,129279,122980
2023-01-14 20:19:21.580285,130077,123220
2023-01-14 20:19:21.600283,129415,123010
2023-01-14 20:19:21.620292,130118,123220
2023-01-14 20:19:21.640287,129496,123050
2023-01-14 20:19:21.660283,130065,123188
2023-01-14 20:19:21.680279,129603,123088
2023-01-14 20:19:21.700281,129622,122940
2023-01-14 20:19:21.720283,129703,123112
2023-01-14 20:19:21.740286,129479,122854
2023-01-14 20:19:21.760284,129722,123121
2023-01-14 20:19:21.780286,129602,122946
2023-01-14 20:19:21.800283,129765,123126
2023-01-14 20:19:21.820293,129716,123001
2023-01-14 20:19:21.84029,129813,123142
2023-01-14 20:19:21.860282,129794,123037
2023-01-14 20:19:21.880279,129638,123064
2023-01-14 20:19:21.900281,129890,123095
2023-01-14 20:19:21.92028,128637,122637
2023-01-14 20:19:21.940285,129942,123147
2023-01-14 20:19:21.960284,128228,122457
2023-01-14 20:19:21.980286,129942,123123
2023-01-14 20:19:22.000286,128310,122488
2023-01-14 20:19:22.020296,129908,123131
2023-01-14 20:19:22.040287,128434,122551
2023-01-14 20:19:22.06028,129882,123184
2023-01-14 20:19:22.080279,128556,122608
2023-01-14 20:19:22.100281,129913,123204
2023-01-14 20:19:22.120281,128783,122708
2023-01-14 20:19:22.140283,129957,123190
2023-01-14 20:19:22.160283,128915,122758
2023-01-14 20:19:22.180286,130007,123176
2023-01-14 20:19:22.200285,128875,122764
2023-01-14 20:19:22.220285,130051,123213
2023-01-14 20:19:22.240285,128858,122745
2023-01-14 20:19:22.260284,130039,123174
2023-01-14 20:19:22.280278,128939,122753
2023-01-14 20:19:22.30028,130046,123172
2023-01-14 20:19:22.320279,129062,122802
2023-01-14 20:19:22.340308,130072,123205
2023-01-14 20:19:22.360316,129209,122864
2023-01-14 20:19:22.380282,130116,123245
2023-01-14 20:19:22.400282,129340,122920
2023-01-14 20:19:22.420282,129795,123135
2023-01-14 20:19:22.440283,129419,122946
2023-01-14 20:19:22.460282,128929,122831
2023-01-14 20:19:22.480287,129491,122975
2023-01-14 20:19:22.500282,128660,122735
2023-01-14 20:19:22.520284,129547,122998
2023-01-14 20:19:22.540287,128816,122798
2023-01-14 20:19:22.560351,129632,123028
2023-01-14 20:19:22.580281,128913,122839
2023-01-14 20:19:22.600283,129707,123052
2023-01-14 20:19:22.620282,129019,122886
2023-01-14 20:19:22.640282,129650,123034
2023-01-14 20:19:22.66028,129177,122955
2023-01-14 20:19:22.680281,128852,122691
2023-01-14 20:19:22.700278,129187,122978
2023-01-14 20:19:22.72028,128184,122423
2023-01-14 20:19:22.740282,129156,122946
2023-01-14 20:19:22.760281,128198,122463
2023-01-14 20:19:22.780283,129179,122946
2023-01-14 20:19:22.800285,128293,122515
2023-01-14 20:19:22.820283,129279,122980
2023-01-14 20:19:22.840289,128393,122557
2023-01-14 20:19:22.860283,129415,123010
2023-01-14 20:19:22.880281,128695,122649
2023-01-14 20:19:22.900281,129496,123050
2023-01-14 20:19:22.920279,128940,122714
2023-01-14 20:19:22.940282,129603,123088
2023-01-14 20:19:22.960281,129030,122707
2023-01-14 20:19:22.980282,129703,123112
2023-01-14 20:19:23.000282,129121,122720
2023-01-14 20:19:23.020284,129722,123121
2023-01-14 20:19:23.040286,129234,122754
2023-01-14 20:19:23.060286,129765,123126
2023-01-14 20:19:23.080281,129323,122799
2023-01-14 20:19:23.100277,129813,123142
2023-01-14 20:19:23.120278,129426,122831
2023-01-14 20:19:23.140281,129638,123064
2023-01-14 20:19:23.160278,129495,122892
2023-01-14 20:19:23.180282,128637,122637
2023-01-14 20:19:23.200287,129541,122911
2023-01-14 20:19:23.220283,128228,122457
2023-01-14 20:19:23.240289,129591,122931
2023-01-14 20:19:23.260282,128310,122488
2023-01-14 20:19:23.280278,129632,122930
2023-01-14 20:19:23.300277,128434,122551
2023-01-14 20:19:23.320282,129661,122948
2023-01-14 20:19:23.340285,128556,122608
2023-01-14 20:19:23.360289,129706,122943
2023-01-14 20:19:23.380282,128783,122708
2023-01-14 20:19:23.40029,129742,122941
2023-01-14 20:19:23.420297,128915,122758
2023-01-14 20:19:23.440284,129757,122959
2023-01-14 20:19:23.460279,128875,122764
2023-01-14 20:19:23.480283,129611,122916
2023-01-14 20:19:23.500279,128858,122745
2023-01-14 20:19:23.52028,128613,122495
2023-01-14 20:19:23.540281,128939,122753
2023-01-14 20:19:23.56028,127890,122215
2023-01-14 20:19:23.580279,129062,122802
2023-01-14 20:19:23.600281,127901,122249
2023-01-14 20:19:23.620281,129209,122864
2023-01-14 20:19:23.640286,128004,122327
2023-01-14 20:19:23.660281,129340,122920
2023-01-14 20:19:23.680298,128117,122376
2023-01-14 20:19:23.700287,129419,122946
2023-01-14 20:19:23.720304,128280,122444
2023-01-14 20:19:23.740344,129491,122975
2023-01-14 20:19:23.760278,128378,122481
2023-01-14 20:19:23.780284,129547,122998
2023-01-14 20:19:23.800286,128340,122459
2023-01-14 20:19:23.820286,129632,123028
2023-01-14 20:19:23.840287,128286,122421
2023-01-14 20:19:23.860329,129707,123052
2023-01-14 20:19:23.880296,128352,122427
2023-01-14 20:19:23.900305,129650,123034
2023-01-14 20:19:23.920299,128507,122488
2023-01-14 20:19:23.940305,128852,122691
2023-01-14 20:19:23.960302,128771,122574
2023-01-14 20:19:23.980299,128184,122423
2023-01-14 20:19:24.000302,129073,122691
2023-01-14 20:19:24.020299,128198,122463
2023-01-14 20:19:24.040306,129176,122758
2023-01-14 20:19:24.060304,128293,122515
2023-01-14 20:19:24.080304,129258,122816
2023-01-14 20:19:24.100302,128393,122557
2023-01-14 20:19:24.120298,129322,122833
2023-01-14 20:19:24.140306,128695,122649
2023-01-14 20:19:24.160302,129404,122842
2023-01-14 20:19:24.180298,128940,122714
2023-01-14 20:19:24.200333,129462,122873
2023-01-14 20:19:24.2203,129030,122707
2023-01-14 20:19:24.240304,129524,122903
2023-01-14 20:19:24.260302,129121,122720
2023-01-14 20:19:24.280297,129593,122907
2023-01-14 20:19:24.300301,129234,122754
2023-01-14 20:19:24.320299,129663,122927
2023-01-14 20:19:24.340304,129323,122799
2023-01-14 20:19:24.3603,129117,122692
2023-01-14 20:19:24.380296,129426,122831
2023-01-14 20:19:24.400301,128044,122237
2023-01-14 20:19:24.420307,129495,122892
2023-01-14 20:19:24.440302,127956,122212
2023-01-14 20:19:24.460301,129541,122911
2023-01-14 20:19:24.480307,128111,122296
2023-01-14 20:19:24.500297,129591,122931
2023-01-14 20:19:24.520298,128205,122352
2023-01-14 20:19:24.540307,129632,122930
2023-01-14 20:19:24.560302,128338,122409
2023-01-14 20:19:24.580297,129661,122948
2023-01-14 20:19:24.600301,128592,122529
2023-01-14 20:19:24.620299,129706,122943
2023-01-14 20:19:24.6403,128643,122563
2023-01-14 20:19:24.660321,129742,122941
2023-01-14 20:19:24.680296,128541,122512
2023-01-14 20:19:24.700301,129757,122959
2023-01-14 20:19:24.720299,128577,122512
2023-01-14 20:19:24.740304,129611,122916
2023-01-14 20:19:24.760301,128738,122566
2023-01-14 20:19:24.780296,128613,122495
2023-01-14 20:19:24.800299,128936,122639
2023-01-14 20:19:24.820297,127890,122215
2023-01-14 20:19:24.840303,129057,122695
2023-01-14 20:19:24.860299,127901,122249
2023-01-14 20:19:24.880296,129154,122736
2023-01-14 20:19:24.900303,128004,122327
2023-01-14 20:19:24.920299,129219,122774
2023-01-14 20:19:24.940304,128117,122376
2023-01-14 20:19:24.960301,129276,122797
2023-01-14 20:19:24.980299,128280,122444
2023-01-14 20:19:25.000294,129308,122807
2023-01-14 20:19:25.020298,128378,122481
2023-01-14 20:19:25.040311,129331,122792
2023-01-14 20:19:25.060305,128340,122459
2023-01-14 20:19:25.080297,129385,122801
2023-01-14 20:19:25.100301,128286,122421
2023-01-14 20:19:25.120297,129439,122812
2023-01-14 20:19:25.140299,128352,122427
2023-01-14 20:19:25.160301,129520,122836
2023-01-14 20:19:25.180297,128507,122488
2023-01-14 20:19:25.200301,129432,122800
2023-01-14 20:19:25.220297,128771,122574
2023-01-14 20:19:25.240298,128419,122362
2023-01-14 20:19:25.260297,129073,122691
2023-01-14 20:19:25.280296,127834,122115
2023-01-14 20:19:25.300301,129176,122758
2023-01-14 20:19:25.320297,127923,122185
2023-01-14 20:19:25.340302,129258,122816
2023-01-14 20:19:25.3603,128100,122266
2023-01-14 20:19:25.380297,129322,122833
2023-01-14 20:19:25.400309,128252,122333
2023-01-14 20:19:25.420297,129404,122842
2023-01-14 20:19:25.440299,128507,122435
2023-01-14 20:19:25.460301,129462,122873
2023-01-14 20:19:25.480296,128716,122512
2023-01-14 20:19:25.5003,129524,122903
2023-01-14 20:19:25.520296,128823,122521
2023-01-14 20:19:25.540303,129593,122907
2023-01-14 20:19:25.560297,128929,122515
2023-01-14 20:19:25.580296,129663,122927
2023-01-14 20:19:25.6003,129058,122531
2023-01-14 20:19:25.620297,129117,122692
2023-01-14 20:19:25.640298,129173,122581
2023-01-14 20:19:25.6603,128044,122237
2023-01-14 20:19:25.680296,129282,122677
2023-01-14 20:19:25.700299,127956,122212
2023-01-14 20:19:25.720299,129339,122728
2023-01-14 20:19:25.740303,128111,122296
2023-01-14 20:19:25.760302,129392,122775
2023-01-14 20:19:25.780297,128205,122352
2023-01-14 20:19:25.8003,129391,122791
2023-01-14 20:19:25.820297,128338,122409
2023-01-14 20:19:25.840302,129459,122814
2023-01-14 20:19:25.860299,128592,122529
2023-01-14 20:19:25.880294,129552,122816
2023-01-14 20:19:25.900632,128643,122563
2023-01-14 20:19:25.920299,128643,122846
2023-01-14 20:19:25.940302,128541,122512
2023-01-14 20:19:25.9603,128541,122860
2023-01-14 20:19:25.980296,128577,122512
2023-01-14 20:19:26.000299,128577,122875
2023-01-14 20:19:26.020299,128738,122566
2023-01-14 20:19:26.040298,128738,122566
2023-01-14 20:19:26.060307,128936,122639
2023-01-14 20:19:26.080298,128936,122639
2023-01-14 20:19:26.1003,129057,122695
2023-01-14 20:19:26.120298,129057,122695
2023-01-14 20:19:26.140303,129154,122736
2023-01-14 20:19:26.160296,129154,122736
2023-01-14 20:19:26.180331,129154,122736
2023-01-14 20:19:26.200299,129219,122774
2023-01-14 20:19:26.220301,129219,122774
2023-01-14 20:19:26.240302,129276,122797
2023-01-14 20:19:26.2603,128616,122403
2023-01-14 20:19:26.280295,129308,122807
2023-01-14 20:19:26.3003,128843,122538
2023-01-14 20:19:26.320297,129331,122792
2023-01-14 20:19:26.340299,129018,122636
2023-01-14 20:19:26.360299,129385,122801
2023-01-14 20:19:26.380298,129085,122680
2023-01-14 20:19:26.400299,129439,122812
2023-01-14 20:19:26.420296,129100,122698
2023-01-14 20:19:26.440304,129520,122836
2023-01-14 20:19:26.460299,129136,122714
2023-01-14 20:19:26.480298,129432,122800
2023-01-14 20:19:26.500299,129271,122701
2023-01-14 20:19:26.520295,128419,122362
2023-01-14 20:19:26.540301,129322,122716
2023-01-14 20:19:26.560296,127834,122115
2023-01-14 20:19:26.580299,129385,122746
2023-01-14 20:19:26.600299,127923,122185
2023-01-14 20:19:26.620296,129424,122780
2023-01-14 20:19:26.640298,128100,122266
2023-01-14 20:19:26.660299,129448,122809
2023-01-14 20:19:26.680295,128252,122333
2023-01-14 20:19:26.7003,129441,122816
2023-01-14 20:19:26.720298,128507,122435
2023-01-14 20:19:26.740305,129489,122824
2023-01-14 20:19:26.760301,128716,122512
2023-01-14 20:19:26.780298,129523,122828
2023-01-14 20:19:26.800299,128823,122521
2023-01-14 20:19:26.820296,129646,122848
2023-01-14 20:19:26.8403,128929,122515
2023-01-14 20:19:26.860299,129712,122874
2023-01-14 20:19:26.880297,129058,122531
2023-01-14 20:19:26.900302,129686,122889
2023-01-14 20:19:26.920297,129173,122581
2023-01-14 20:19:26.940303,128823,122520
2023-01-14 20:19:26.960299,129282,122677
2023-01-14 20:19:26.980297,128020,122172
2023-01-14 20:19:27.000299,129339,122728
2023-01-14 20:19:27.020297,128091,122188
2023-01-14 20:19:27.0403,129392,122775
2023-01-14 20:19:27.060318,128317,122293
2023-01-14 20:19:27.080294,129391,122791
2023-01-14 20:19:27.100291,128532,122366
2023-01-14 20:19:27.120296,129459,122814
2023-01-14 20:19:27.140304,128700,122442
2023-01-14 20:19:27.1603,129552,122816
2023-01-14 20:19:27.180295,128900,122526
2023-01-14 20:19:27.200303,129576,122846
2023-01-14 20:19:27.220297,128981,122551
2023-01-14 20:19:27.240302,129636,122860
2023-01-14 20:19:27.2603,129016,122558
2023-01-14 20:19:27.280298,129726,122875
2023-01-14 20:19:27.300299,129105,122570
2023-01-14 20:19:27.320297,129775,122922
2023-01-14 20:19:27.340302,129181,122591
2023-01-14 20:19:27.360299,129372,122718
2023-01-14 20:19:27.380298,129290,122631
2023-01-14 20:19:27.400299,128313,122213
2023-01-14 20:19:27.420298,129364,122689
2023-01-14 20:19:27.440301,129154,122736
2023-01-14 20:19:27.460298,129417,122707
2023-01-14 20:19:27.480294,129219,122774
2023-01-14 20:19:27.500299,129539,122742
2023-01-14 20:19:27.520305,128616,122403
2023-01-14 20:19:27.5403,129612,122787
2023-01-14 20:19:27.560299,128843,122538
2023-01-14 20:19:27.580298,129647,122813
2023-01-14 20:19:27.600298,129018,122636
2023-01-14 20:19:27.620296,129692,122840
2023-01-14 20:19:27.640334,129085,122680
2023-01-14 20:19:27.660298,129727,122868
2023-01-14 20:19:27.680298,129100,122698
2023-01-14 20:19:27.700299,129792,122915
2023-01-14 20:19:27.720298,129136,122714
2023-01-14 20:19:27.740302,129812,122931
2023-01-14 20:19:27.760297,129271,122701
2023-01-14 20:19:27.780295,129362,122706
2023-01-14 20:19:27.800293,129322,122716
2023-01-14 20:19:27.820295,128364,122277
2023-01-14 20:19:27.840299,129385,122746
2023-01-14 20:19:27.860298,128179,122224
2023-01-14 20:19:27.880296,129424,122780
2023-01-14 20:19:27.920312,129448,122809
2023-01-14 20:19:27.941,128654,122474
2023-01-14 20:19:27.960322,129441,122816
2023-01-14 20:19:27.980321,128876,122544
2023-01-14 20:19:28.000304,129489,122824
2023-01-14 20:19:28.02031,129085,122637
2023-01-14 20:19:28.040275,129523,122828
2023-01-14 20:19:28.060289,129205,122666
2023-01-14 20:19:28.080268,129646,122848
2023-01-14 20:19:28.100305,129263,122644
2023-01-14 20:19:28.120265,129712,122874
2023-01-14 20:19:28.140268,129346,122638
2023-01-14 20:19:28.160263,129686,122889
2023-01-14 20:19:28.180265,129450,122661
2023-01-14 20:19:28.200313,128823,122520
2023-01-14 20:19:28.220263,129549,122697
2023-01-14 20:19:28.240265,128020,122172
2023-01-14 20:19:28.260267,129633,122741
2023-01-14 20:19:28.280264,128091,122188
2023-01-14 20:19:28.300265,129710,122781
2023-01-14 20:19:28.320263,128317,122293
2023-01-14 20:19:28.340269,129770,122814
2023-01-14 20:19:28.360265,128532,122366
2023-01-14 20:19:28.380264,129803,122840
2023-01-14 20:19:28.400264,128700,122442
2023-01-14 20:19:28.420272,129846,122851
2023-01-14 20:19:28.440264,128900,122526
2023-01-14 20:19:28.460261,129884,122818
2023-01-14 20:19:28.480261,128981,122551
2023-01-14 20:19:28.500266,129914,122803
2023-01-14 20:19:28.520264,129016,122558
2023-01-14 20:19:28.540267,129948,122809
2023-01-14 20:19:28.560287,129105,122570
2023-01-14 20:19:28.580264,129939,122832
2023-01-14 20:19:28.600263,129181,122591
2023-01-14 20:19:28.620263,129379,122594
2023-01-14 20:19:28.640263,129290,122631
2023-01-14 20:19:28.660265,128788,122350
2023-01-14 20:19:28.680271,129364,122689
2023-01-14 20:19:28.700297,128965,122453
2023-01-14 20:19:28.720297,129417,122707
2023-01-14 20:19:28.740295,129228,122586
2023-01-14 20:19:28.760299,129539,122742
2023-01-14 20:19:28.780297,129362,122646
2023-01-14 20:19:28.800329,129612,122787
2023-01-14 20:19:28.82029,129505,122705
2023-01-14 20:19:28.840295,129647,122813
2023-01-14 20:19:28.860299,129567,122713
2023-01-14 20:19:28.880296,129692,122840
2023-01-14 20:19:28.900331,129568,122696
2023-01-14 20:19:28.920294,129727,122868
2023-01-14 20:19:28.9403,129564,122682
2023-01-14 20:19:28.960297,129792,122915
2023-01-14 20:19:28.980297,129595,122693
2023-01-14 20:19:29.000297,129812,122931
2023-01-14 20:19:29.020288,129664,122738
2023-01-14 20:19:29.040294,129362,122706
2023-01-14 20:19:29.0603,129711,122764
2023-01-14 20:19:29.080297,128364,122277
2023-01-14 20:19:29.100297,129758,122802
2023-01-14 20:19:29.120296,128179,122224
2023-01-14 20:19:29.140298,129798,122826
2023-01-14 20:19:29.160294,128421,122364
2023-01-14 20:19:29.180297,129817,122865
2023-01-14 20:19:29.200296,128654,122474
2023-01-14 20:19:29.220289,129824,122867
2023-01-14 20:19:29.240294,128876,122544
2023-01-14 20:19:29.260298,129891,122867
2023-01-14 20:19:29.280295,129085,122637
2023-01-14 20:19:29.300293,129928,122907
2023-01-14 20:19:29.320294,129205,122666
2023-01-14 20:19:29.340295,129595,122766
2023-01-14 20:19:29.360298,129263,122644
2023-01-14 20:19:29.380296,128730,122380
2023-01-14 20:19:29.400292,129346,122638
2023-01-14 20:19:29.420297,128562,122305
2023-01-14 20:19:29.440292,129450,122661
2023-01-14 20:19:29.460293,128831,122460
2023-01-14 20:19:29.480297,129549,122697
2023-01-14 20:19:29.500296,129001,122552
2023-01-14 20:19:29.520293,129633,122741
2023-01-14 20:19:29.540298,129134,122642
2023-01-14 20:19:29.560296,129710,122781
2023-01-14 20:19:29.580295,129282,122725
2023-01-14 20:19:29.600295,129770,122814
2023-01-14 20:19:29.620288,129356,122755
2023-01-14 20:19:29.640292,129803,122840
2023-01-14 20:19:29.660296,129323,122731
2023-01-14 20:19:29.680293,129846,122851
2023-01-14 20:19:29.700291,129332,122717
2023-01-14 20:19:29.720325,129884,122818
2023-01-14 20:19:29.740302,129428,122762
2023-01-14 20:19:29.760297,129914,122803
2023-01-14 20:19:29.780296,129505,122795
2023-01-14 20:19:29.800296,129948,122809
2023-01-14 20:19:29.820319,129557,122822
2023-01-14 20:19:29.840294,129939,122832
2023-01-14 20:19:29.860298,129621,122855
2023-01-14 20:19:29.880292,129379,122594
2023-01-14 20:19:29.900294,129644,122864
2023-01-14 20:19:29.920326,128788,122350
2023-01-14 20:19:29.940299,129656,122872
2023-01-14 20:19:29.960297,128965,122453
2023-01-14 20:19:29.980296,129720,122884
2023-01-14 20:19:30.000294,129228,122586
2023-01-14 20:19:30.020289,129721,122901
2023-01-14 20:19:30.040298,129362,122646
2023-01-14 20:19:30.060294,129239,122689
2023-01-14 20:19:30.080298,129505,122705
2023-01-14 20:19:30.100296,128236,122245
2023-01-14 20:19:30.120294,129567,122713
2023-01-14 20:19:30.1403,128076,122173
2023-01-14 20:19:30.160295,129568,122696
2023-01-14 20:19:30.180294,128233,122261
2023-01-14 20:19:30.200298,129564,122682
2023-01-14 20:19:30.220291,128341,122319
2023-01-14 20:19:30.240295,129595,122693
2023-01-14 20:19:30.260297,128509,122380
2023-01-14 20:19:30.280295,129664,122738
2023-01-14 20:19:30.300296,128740,122461
2023-01-14 20:19:30.320292,129711,122764
2023-01-14 20:19:30.340298,128867,122507
2023-01-14 20:19:30.360296,129758,122802
2023-01-14 20:19:30.380295,128871,122499
2023-01-14 20:19:30.400295,129798,122826
2023-01-14 20:19:30.42029,128893,122496
2023-01-14 20:19:30.440292,129817,122865
2023-01-14 20:19:30.460292,128974,122531
2023-01-14 20:19:30.480296,129824,122867
2023-01-14 20:19:30.500292,129050,122573
2023-01-14 20:19:30.520293,129891,122867
2023-01-14 20:19:30.5403,129122,122606
2023-01-14 20:19:30.560295,129928,122907
2023-01-14 20:19:30.580294,129190,122635
2023-01-14 20:19:30.600294,129595,122766
2023-01-14 20:19:30.620288,129260,122651
2023-01-14 20:19:30.640292,128730,122380
2023-01-14 20:19:30.660295,129365,122666
2023-01-14 20:19:30.680299,128562,122305
2023-01-14 20:19:30.700295,129505,122681
2023-01-14 20:19:30.720293,128831,122460
2023-01-14 20:19:30.740299,129546,122709
2023-01-14 20:19:30.760296,129001,122552
2023-01-14 20:19:30.780294,128928,122438
2023-01-14 20:19:30.800293,129134,122642
2023-01-14 20:19:30.820288,128255,122128
2023-01-14 20:19:30.840292,129282,122725
2023-01-14 20:19:30.860296,128403,122172
2023-01-14 20:19:30.880295,129356,122755
2023-01-14 20:19:30.900297,128704,122288
2023-01-14 20:19:30.920292,129323,122731
2023-01-14 20:19:30.940298,128939,122368
2023-01-14 20:19:30.960291,129332,122717
2023-01-14 20:19:30.980294,129135,122460
2023-01-14 20:19:31.000294,129428,122762
2023-01-14 20:19:31.02029,129262,122518
2023-01-14 20:19:31.0403,129505,122795
2023-01-14 20:19:31.060291,129187,122517
2023-01-14 20:19:31.080296,129557,122822
2023-01-14 20:19:31.10029,129114,122504
2023-01-14 20:19:31.120292,129621,122855
2023-01-14 20:19:31.140326,129156,122498
2023-01-14 20:19:31.160291,129644,122864
2023-01-14 20:19:31.180295,129253,122531
2023-01-14 20:19:31.200294,129656,122872
2023-01-14 20:19:31.220291,129322,122550
2023-01-14 20:19:31.240299,129720,122884
2023-01-14 20:19:31.26029,129399,122575
2023-01-14 20:19:31.280289,129721,122901
2023-01-14 20:19:31.300295,129493,122605
2023-01-14 20:19:31.320293,129239,122689
2023-01-14 20:19:31.340297,129550,122641
2023-01-14 20:19:31.360299,128236,122245
2023-01-14 20:19:31.380289,129625,122629
2023-01-14 20:19:31.40029,128076,122173
2023-01-14 20:19:31.420289,129717,122700
2023-01-14 20:19:31.440302,128233,122261
2023-01-14 20:19:31.460291,129775,122704
2023-01-14 20:19:31.48029,128341,122319
2023-01-14 20:19:31.500294,129172,122488
2023-01-14 20:19:31.520292,128509,122380
2023-01-14 20:19:31.540332,128304,122131
2023-01-14 20:19:31.560296,128740,122461
2023-01-14 20:19:31.580294,128338,122140
2023-01-14 20:19:31.600293,128867,122507
2023-01-14 20:19:31.620287,128539,122220
2023-01-14 20:19:31.640291,128871,122499
2023-01-14 20:19:31.660293,128708,122300
2023-01-14 20:19:31.680289,128893,122496
2023-01-14 20:19:31.700291,128886,122390
2023-01-14 20:19:31.720292,128974,122531
2023-01-14 20:19:31.740296,128961,122460
2023-01-14 20:19:31.760298,129050,122573
2023-01-14 20:19:31.78029,128946,122475
2023-01-14 20:19:31.800289,129122,122606
2023-01-14 20:19:31.820289,128892,122446
2023-01-14 20:19:31.840295,129190,122635
2023-01-14 20:19:31.860295,128978,122458
2023-01-14 20:19:31.880294,129260,122651
2023-01-14 20:19:31.900295,129143,122494
2023-01-14 20:19:31.920292,129365,122666
2023-01-14 20:19:31.940298,129261,122531
2023-01-14 20:19:31.960295,129505,122681
2023-01-14 20:19:31.980295,129328,122562
2023-01-14 20:19:32.000319,129546,122709
2023-01-14 20:19:32.020289,129439,122572
2023-01-14 20:19:32.040292,128928,122438
2023-01-14 20:19:32.060292,129474,122581
2023-01-14 20:19:32.080298,128255,122128
2023-01-14 20:19:32.100288,129539,122595
2023-01-14 20:19:32.120289,128403,122172
2023-01-14 20:19:32.140297,129574,122610
2023-01-14 20:19:32.160328,128704,122288
2023-01-14 20:19:32.180294,129657,122661
2023-01-14 20:19:32.200295,128939,122368
2023-01-14 20:19:32.220289,129330,122538
2023-01-14 20:19:32.240288,129135,122460
2023-01-14 20:19:32.260293,128146,122054
2023-01-14 20:19:32.280289,129262,122518
2023-01-14 20:19:32.300293,127829,121907
2023-01-14 20:19:32.320292,129187,122517
2023-01-14 20:19:32.340296,127904,121944
2023-01-14 20:19:32.360295,129114,122504
2023-01-14 20:19:32.380291,128059,122015
2023-01-14 20:19:32.40029,129156,122498
2023-01-14 20:19:32.420289,128166,122069
2023-01-14 20:19:32.440289,129253,122531
2023-01-14 20:19:32.460294,128404,122164
2023-01-14 20:19:32.480288,129322,122550
2023-01-14 20:19:32.500289,128481,122212
2023-01-14 20:19:32.520293,129399,122575
2023-01-14 20:19:32.540297,128362,122158
2023-01-14 20:19:32.560294,129493,122605
2023-01-14 20:19:32.580293,128366,122140
2023-01-14 20:19:32.600292,129550,122641
2023-01-14 20:19:32.620288,128533,122189
2023-01-14 20:19:32.640287,129625,122629
2023-01-14 20:19:32.660293,128680,122238
2023-01-14 20:19:32.680303,129717,122700
2023-01-14 20:19:32.700291,128856,122303
2023-01-14 20:19:32.720292,129775,122704
2023-01-14 20:19:32.740298,128962,122361
2023-01-14 20:19:32.760294,129172,122488
2023-01-14 20:19:32.780293,129032,122400
2023-01-14 20:19:32.800293,128304,122131
2023-01-14 20:19:32.82029,129103,122422
2023-01-14 20:19:32.840287,128338,122140
2023-01-14 20:19:32.860292,129157,122444
2023-01-14 20:19:32.880327,128539,122220
2023-01-14 20:19:32.900299,129197,122434
2023-01-14 20:19:32.920292,128708,122300
2023-01-14 20:19:32.940298,129284,122453
2023-01-14 20:19:32.960294,128886,122390
2023-01-14 20:19:32.980293,129357,122460
2023-01-14 20:19:33.000292,128961,122460
2023-01-14 20:19:33.020288,128673,122173
2023-01-14 20:19:33.040287,128946,122475
2023-01-14 20:19:33.060342,127678,121751
2023-01-14 20:19:33.080294,128892,122446
2023-01-14 20:19:33.100294,127633,121732
2023-01-14 20:19:33.12029,128978,122458
2023-01-14 20:19:33.140294,127783,121807
2023-01-14 20:19:33.160294,129143,122494
2023-01-14 20:19:33.180294,127947,121891
2023-01-14 20:19:33.200292,129261,122531
2023-01-14 20:19:33.220288,128275,122001
2023-01-14 20:19:33.240293,129328,122562
2023-01-14 20:19:33.260284,128552,122130
2023-01-14 20:19:33.280291,129439,122572
2023-01-14 20:19:33.300289,128676,122189
2023-01-14 20:19:33.32029,129474,122581
2023-01-14 20:19:33.340294,128728,122198
2023-01-14 20:19:33.360292,129539,122595
2023-01-14 20:19:33.380293,128805,122224
2023-01-14 20:19:33.400292,129574,122610
2023-01-14 20:19:33.420312,128881,122252
2023-01-14 20:19:33.440306,129657,122661
2023-01-14 20:19:33.460286,129006,122330
2023-01-14 20:19:33.480287,129330,122538
2023-01-14 20:19:33.500292,129079,122376
2023-01-14 20:19:33.520291,128146,122054
2023-01-14 20:19:33.540297,129167,122418
2023-01-14 20:19:33.560289,127829,121907
2023-01-14 20:19:33.580293,129254,122451
2023-01-14 20:19:33.600292,127904,121944
2023-01-14 20:19:33.620287,129329,122471
2023-01-14 20:19:33.640287,128059,122015
2023-01-14 20:19:33.660285,129416,122491
2023-01-14 20:19:33.680296,128166,122069
2023-01-14 20:19:33.700309,129514,122494
2023-01-14 20:19:33.720291,128404,122164
2023-01-14 20:19:33.740293,129622,122494
2023-01-14 20:19:33.760293,128481,122212
2023-01-14 20:19:33.780291,129681,122513
2023-01-14 20:19:33.80029,128362,122158
2023-01-14 20:19:33.820287,129718,122545
2023-01-14 20:19:33.840285,128366,122140
2023-01-14 20:19:33.860291,129490,122442
2023-01-14 20:19:33.880295,128533,122189
2023-01-14 20:19:33.900293,128351,121962
2023-01-14 20:19:33.92029,128680,122238
2023-01-14 20:19:33.940294,127905,121766
2023-01-14 20:19:33.960288,128856,122303
2023-01-14 20:19:33.980291,128198,121878
2023-01-14 20:19:34.000276,128962,122361
2023-01-14 20:19:34.020271,128548,122007
2023-01-14 20:19:34.040275,129032,122400
2023-01-14 20:19:34.060268,128779,122088
2023-01-14 20:19:34.08027,129103,122422
2023-01-14 20:19:34.100269,129035,122185
2023-01-14 20:19:34.120269,129157,122444
2023-01-14 20:19:34.140271,129150,122235
2023-01-14 20:19:34.160267,129197,122434
2023-01-14 20:19:34.180269,129148,122225
2023-01-14 20:19:34.200274,129284,122453
2023-01-14 20:19:34.220272,129194,122227
2023-01-14 20:19:34.240268,129357,122460
2023-01-14 20:19:34.26027,129296,122251
2023-01-14 20:19:34.280268,128673,122173
2023-01-14 20:19:34.30027,129398,122270
2023-01-14 20:19:34.320269,127678,121751
2023-01-14 20:19:34.340273,129473,122302
2023-01-14 20:19:34.360269,127633,121732
2023-01-14 20:19:34.380271,129534,122334
2023-01-14 20:19:34.400269,127783,121807
2023-01-14 20:19:34.420269,129590,122390
2023-01-14 20:19:34.440271,127947,121891
2023-01-14 20:19:34.46027,129607,122423
2023-01-14 20:19:34.48027,128275,122001
2023-01-14 20:19:34.50027,129605,122435
2023-01-14 20:19:34.520269,128552,122130
2023-01-14 20:19:34.540274,129590,122433
2023-01-14 20:19:34.560269,128676,122189
2023-01-14 20:19:34.58027,129606,122460
2023-01-14 20:19:34.600268,128728,122198
2023-01-14 20:19:34.620282,129652,122498
2023-01-14 20:19:34.64027,128805,122224
2023-01-14 20:19:34.66027,129637,122501
2023-01-14 20:19:34.680269,128881,122252
2023-01-14 20:19:34.700271,128845,122161
2023-01-14 20:19:34.720271,129006,122330
2023-01-14 20:19:34.740274,127880,121749
2023-01-14 20:19:34.760269,129079,122376
2023-01-14 20:19:34.78027,127884,121781
2023-01-14 20:19:34.800268,129167,122418
2023-01-14 20:19:34.820269,128032,121870
2023-01-14 20:19:34.840268,129254,122451
2023-01-14 20:19:34.86027,128202,121946
2023-01-14 20:19:34.880268,129329,122471
2023-01-14 20:19:34.900271,128423,122055
2023-01-14 20:19:34.92027,129416,122491
2023-01-14 20:19:34.940276,128584,122133
2023-01-14 20:19:34.960269,129514,122494
2023-01-14 20:19:34.980271,128518,122118
2023-01-14 20:19:35.000269,129622,122494
2023-01-14 20:19:35.020272,128378,122079
2023-01-14 20:19:35.040269,129681,122513
2023-01-14 20:19:35.060271,128391,122085
2023-01-14 20:19:35.080268,129718,122545
2023-01-14 20:19:35.10027,128513,122125
2023-01-14 20:19:35.120271,129490,122442
2023-01-14 20:19:35.140274,128678,122190
2023-01-14 20:19:35.160268,128351,121962
2023-01-14 20:19:35.180269,128816,122271
2023-01-14 20:19:35.200271,127905,121766
2023-01-14 20:19:35.220269,128921,122332
2023-01-14 20:19:35.240267,128198,121878
2023-01-14 20:19:35.260269,129054,122392
2023-01-14 20:19:35.280267,128548,122007
2023-01-14 20:19:35.300269,129108,122406
2023-01-14 20:19:35.320269,128779,122088
2023-01-14 20:19:35.34027,129180,122421
2023-01-14 20:19:35.360268,129035,122185
2023-01-14 20:19:35.380269,129260,122444
2023-01-14 20:19:35.400267,129150,122235
2023-01-14 20:19:35.420267,129401,122469
2023-01-14 20:19:35.440312,129148,122225
2023-01-14 20:19:35.460271,129446,122480
2023-01-14 20:19:35.480268,129194,122227
2023-01-14 20:19:35.50027,128761,122176
2023-01-14 20:19:35.520272,129296,122251
2023-01-14 20:19:35.540273,127752,121747
2023-01-14 20:19:35.560268,129398,122270
2023-01-14 20:19:35.580269,127673,121705
2023-01-14 20:19:35.600267,129473,122302
2023-01-14 20:19:35.620269,127815,121781
2023-01-14 20:19:35.640269,129534,122334
2023-01-14 20:19:35.660265,127900,121821
2023-01-14 20:19:35.680266,129590,122390
2023-01-14 20:19:35.700294,128062,121894
2023-01-14 20:19:35.720271,129607,122423
2023-01-14 20:19:35.740269,128249,121952
2023-01-14 20:19:35.760269,129605,122435
2023-01-14 20:19:35.780267,128277,121983
2023-01-14 20:19:35.800273,129590,122433
2023-01-14 20:19:35.82027,128218,121969
2023-01-14 20:19:35.840268,129606,122460
2023-01-14 20:19:35.86027,128272,122002
2023-01-14 20:19:35.880269,129652,122498
2023-01-14 20:19:35.900302,128418,122069
2023-01-14 20:19:35.920268,129637,122501
2023-01-14 20:19:35.940271,128503,122102
2023-01-14 20:19:35.960278,128845,122161
2023-01-14 20:19:35.980269,128845,122134
2023-01-14 20:19:36.000276,127880,121749
2023-01-14 20:19:36.020276,128621,122167
2023-01-14 20:19:36.040276,127884,121781
2023-01-14 20:19:36.060277,127884,122238
2023-01-14 20:19:36.080277,128032,121870
2023-01-14 20:19:36.100267,128032,121870
2023-01-14 20:19:36.120266,128202,121946
2023-01-14 20:19:36.14027,128202,121946
2023-01-14 20:19:36.160265,128423,122055
2023-01-14 20:19:36.180267,128423,122055
2023-01-14 20:19:36.200273,128423,122055
2023-01-14 20:19:36.22027,128584,122133
2023-01-14 20:19:36.240269,128518,122118
2023-01-14 20:19:36.260269,128518,122118
2023-01-14 20:19:36.280267,128518,122118
2023-01-14 20:19:36.300265,128378,122079
2023-01-14 20:19:36.320266,129373,122420
2023-01-14 20:19:36.340268,128391,122085
2023-01-14 20:19:36.360274,128832,122178
2023-01-14 20:19:36.380267,128513,122125
2023-01-14 20:19:36.400269,127815,121751
2023-01-14 20:19:36.420269,128678,122190
2023-01-14 20:19:36.440269,127767,121748
2023-01-14 20:19:36.460267,128816,122271
2023-01-14 20:19:36.48027,128060,121882
2023-01-14 20:19:36.500269,128921,122332
2023-01-14 20:19:36.520269,128224,121968
2023-01-14 20:19:36.540274,129054,122392
2023-01-14 20:19:36.56027,128376,122042
2023-01-14 20:19:36.580271,129108,122406
2023-01-14 20:19:36.600283,128618,122113
2023-01-14 20:19:36.620284,129180,122421
2023-01-14 20:19:36.640283,128656,122162
2023-01-14 20:19:36.660287,129260,122444
2023-01-14 20:19:36.680287,128666,122165
2023-01-14 20:19:36.700287,129401,122469
2023-01-14 20:19:36.720292,128816,122166
2023-01-14 20:19:36.740294,129446,122480
2023-01-14 20:19:36.760291,128957,122203
2023-01-14 20:19:36.780289,128761,122176
2023-01-14 20:19:36.800285,129116,122228
2023-01-14 20:19:36.820284,127752,121747
2023-01-14 20:19:36.840287,129213,122273
2023-01-14 20:19:36.860289,127673,121705
2023-01-14 20:19:36.880289,129281,122326
2023-01-14 20:19:36.900287,127815,121781
2023-01-14 20:19:36.920286,129306,122372
2023-01-14 20:19:36.940292,127900,121821
2023-01-14 20:19:36.960289,129372,122399
2023-01-14 20:19:36.980289,128062,121894
2023-01-14 20:19:37.000285,129432,122416
2023-01-14 20:19:37.020284,128249,121952
2023-01-14 20:19:37.040283,129504,122430
2023-01-14 20:19:37.060288,128277,121983
2023-01-14 20:19:37.080284,129586,122458
2023-01-14 20:19:37.100285,128218,121969
2023-01-14 20:19:37.120286,129734,122495
2023-01-14 20:19:37.14029,128272,122002
2023-01-14 20:19:37.16029,129626,122444
2023-01-14 20:19:37.180288,128418,122069
2023-01-14 20:19:37.200283,128712,122027
2023-01-14 20:19:37.220282,128503,122102
2023-01-14 20:19:37.240281,128032,121760
2023-01-14 20:19:37.260287,128552,122134
2023-01-14 20:19:37.28029,128180,121873
2023-01-14 20:19:37.300286,128621,122167
2023-01-14 20:19:37.320285,128328,121982
2023-01-14 20:19:37.340291,128748,122238
2023-01-14 20:19:37.360287,128313,122031
2023-01-14 20:19:37.380285,128873,122279
2023-01-14 20:19:37.400286,128415,122104
2023-01-14 20:19:37.420283,129009,122354
2023-01-14 20:19:37.440281,128471,122128
2023-01-14 20:19:37.460287,128423,122055
2023-01-14 20:19:37.480284,128372,122099
2023-01-14 20:19:37.500285,129200,122373
2023-01-14 20:19:37.520285,128351,122088
2023-01-14 20:19:37.54029,128518,122118
2023-01-14 20:19:37.560289,128398,122121
2023-01-14 20:19:37.580288,129373,122420
2023-01-14 20:19:37.600285,128500,122163
2023-01-14 20:19:37.620283,128832,122178
2023-01-14 20:19:37.640281,128659,122232
2023-01-14 20:19:37.660287,127815,121751
2023-01-14 20:19:37.680287,128834,122298
2023-01-14 20:19:37.700285,127767,121748
2023-01-14 20:19:37.720286,128994,122357
2023-01-14 20:19:37.740293,128060,121882
2023-01-14 20:19:37.76029,129112,122408
2023-01-14 20:19:37.780287,128224,121968
2023-01-14 20:19:37.800285,129193,122432
2023-01-14 20:19:37.820283,128376,122042
2023-01-14 20:19:37.840282,129256,122455
2023-01-14 20:19:37.860289,128618,122113
2023-01-14 20:19:37.880289,129325,122483
2023-01-14 20:19:37.926437,129414,122499
2023-01-14 20:19:37.940328,128666,122165
2023-01-14 20:19:37.96032,129152,122400
2023-01-14 20:19:37.980302,128816,122166
2023-01-14 20:19:38.000323,127944,121914
2023-01-14 20:19:38.020283,128957,122203
2023-01-14 20:19:38.040274,127563,121747
2023-01-14 20:19:38.060317,129116,122228
2023-01-14 20:19:38.080276,127671,121801
2023-01-14 20:19:38.100256,129213,122273
2023-01-14 20:19:38.120256,127788,121863
2023-01-14 20:19:38.140259,129281,122326
2023-01-14 20:19:38.160257,127865,121904
2023-01-14 20:19:38.180253,129306,122372
2023-01-14 20:19:38.200261,128049,121971
2023-01-14 20:19:38.220265,129372,122399
2023-01-14 20:19:38.240259,128148,122019
2023-01-14 20:19:38.260256,129432,122416
2023-01-14 20:19:38.280255,128162,122011
2023-01-14 20:19:38.300253,129504,122430
2023-01-14 20:19:38.320257,128172,122011
2023-01-14 20:19:38.340263,129586,122458
2023-01-14 20:19:38.360255,128315,122034
2023-01-14 20:19:38.380255,129734,122495
2023-01-14 20:19:38.400253,128500,122116
2023-01-14 20:19:38.420261,129626,122444
2023-01-14 20:19:38.440269,128651,122175
2023-01-14 20:19:38.460256,128712,122027
2023-01-14 20:19:38.480255,128795,122256
2023-01-14 20:19:38.500252,128032,121760
2023-01-14 20:19:38.520256,128911,122312
2023-01-14 20:19:38.54026,128180,121873
2023-01-14 20:19:38.560256,128985,122339
2023-01-14 20:19:38.580255,128328,121982
2023-01-14 20:19:38.600252,129041,122348
2023-01-14 20:19:38.620256,128313,122031
2023-01-14 20:19:38.640258,129119,122368
2023-01-14 20:19:38.660262,128415,122104
2023-01-14 20:19:38.680254,129196,122396
2023-01-14 20:19:38.700262,128471,122128
2023-01-14 20:19:38.720284,129274,122424
2023-01-14 20:19:38.740301,128372,122099
2023-01-14 20:19:38.760288,129339,122452
2023-01-14 20:19:38.780288,128351,122088
2023-01-14 20:19:38.800341,128815,122230
2023-01-14 20:19:38.820287,128398,122121
2023-01-14 20:19:38.840288,127629,121728
2023-01-14 20:19:38.860284,128500,122163
2023-01-14 20:19:38.880335,127418,121655
2023-01-14 20:19:38.900285,128659,122232
2023-01-14 20:19:38.920291,127521,121731
2023-01-14 20:19:38.940299,128834,122298
2023-01-14 20:19:38.96029,127611,121789
2023-01-14 20:19:38.980287,128994,122357
2023-01-14 20:19:39.000286,127698,121834
2023-01-14 20:19:39.020287,129112,122408
2023-01-14 20:19:39.040295,127865,121924
2023-01-14 20:19:39.060284,129193,122432
2023-01-14 20:19:39.080299,127899,121941
2023-01-14 20:19:39.100306,129256,122455
2023-01-14 20:19:39.120282,127875,121935
2023-01-14 20:19:39.14029,129325,122483
2023-01-14 20:19:39.160277,127937,121944
2023-01-14 20:19:39.180282,129414,122499
2023-01-14 20:19:39.200304,128136,122005
2023-01-14 20:19:39.220289,129152,122400
2023-01-14 20:19:39.240297,128388,122095
2023-01-14 20:19:39.260282,127944,121914
2023-01-14 20:19:39.280288,128625,122179
2023-01-14 20:19:39.300286,127563,121747
2023-01-14 20:19:39.320318,128827,122251
2023-01-14 20:19:39.340321,127671,121801
2023-01-14 20:19:39.360288,128975,122312
2023-01-14 20:19:39.380286,127788,121863
2023-01-14 20:19:39.400286,129095,122344
2023-01-14 20:19:39.420315,127865,121904
2023-01-14 20:19:39.440303,129226,122365
2023-01-14 20:19:39.460283,128049,121971
2023-01-14 20:19:39.480287,129344,122395
2023-01-14 20:19:39.500286,128148,122019
2023-01-14 20:19:39.520289,129456,122442
2023-01-14 20:19:39.540297,128162,122011
2023-01-14 20:19:39.560284,129428,122450
2023-01-14 20:19:39.580286,128172,122011
2023-01-14 20:19:39.600286,128743,122138
2023-01-14 20:19:39.620287,128315,122034
2023-01-14 20:19:39.640295,127885,121762
2023-01-14 20:19:39.660282,128500,122116
2023-01-14 20:19:39.680288,127951,121821
2023-01-14 20:19:39.700286,128651,122175
2023-01-14 20:19:39.720286,128291,121968
2023-01-14 20:19:39.740297,128795,122256
2023-01-14 20:19:39.760287,128565,122066
2023-01-14 20:19:39.780286,128911,122312
2023-01-14 20:19:39.80029,128820,122150
2023-01-14 20:19:39.820289,128985,122339
2023-01-14 20:19:39.840294,128967,122234
2023-01-14 20:19:39.860282,129041,122348
2023-01-14 20:19:39.880288,129013,122242
2023-01-14 20:19:39.900282,129119,122368
2023-01-14 20:19:39.920285,129044,122214
2023-01-14 20:19:39.940297,129196,122396
2023-01-14 20:19:39.960288,129119,122209
2023-01-14 20:19:39.980296,129274,122424
2023-01-14 20:19:40.000287,129206,122258
2023-01-14 20:19:40.020286,129339,122452
2023-01-14 20:19:40.040307,129265,122319
2023-01-14 20:19:40.060286,128815,122230
2023-01-14 20:19:40.080287,129348,122360
2023-01-14 20:19:40.100284,127629,121728
2023-01-14 20:19:40.120287,129420,122398
2023-01-14 20:19:40.140291,127418,121655
2023-01-14 20:19:40.160282,129498,122424
2023-01-14 20:19:40.18028,127521,121731
2023-01-14 20:19:40.20029,129584,122441
2023-01-14 20:19:40.220282,127611,121789
2023-01-14 20:19:40.240297,129659,122481
2023-01-14 20:19:40.260281,127698,121834
2023-01-14 20:19:40.280289,129682,122522
2023-01-14 20:19:40.300289,127865,121924
2023-01-14 20:19:40.320287,129281,122380
2023-01-14 20:19:40.340295,127899,121941
2023-01-14 20:19:40.360288,128065,121899
2023-01-14 20:19:40.380287,127875,121935
2023-01-14 20:19:40.400282,127692,121767
2023-01-14 20:19:40.420287,127937,121944
2023-01-14 20:19:40.440294,127859,121847
2023-01-14 20:19:40.460282,128136,122005
2023-01-14 20:19:40.480286,128076,121942
2023-01-14 20:19:40.500286,128388,122095
2023-01-14 20:19:40.520285,128376,122046
2023-01-14 20:19:40.540325,128625,122179
2023-01-14 20:19:40.560288,128680,122154
2023-01-14 20:19:40.580285,128827,122251
2023-01-14 20:19:40.600281,128838,122215
2023-01-14 20:19:40.620287,128975,122312
2023-01-14 20:19:40.640293,128892,122217
2023-01-14 20:19:40.660281,129095,122344
2023-01-14 20:19:40.680282,128944,122220
2023-01-14 20:19:40.700286,129226,122365
2023-01-14 20:19:40.720287,129060,122257
2023-01-14 20:19:40.740295,129344,122395
2023-01-14 20:19:40.760287,129147,122291
2023-01-14 20:19:40.780286,129456,122442
2023-01-14 20:19:40.800285,129217,122323
2023-01-14 20:19:40.820285,129428,122450
2023-01-14 20:19:40.840293,129264,122354
2023-01-14 20:19:40.860281,128743,122138
2023-01-14 20:19:40.880285,129291,122370
2023-01-14 20:19:40.900281,127885,121762
2023-01-14 20:19:40.920285,129333,122396
2023-01-14 20:19:40.940294,127951,121821
2023-01-14 20:19:40.960287,129391,122410
2023-01-14 20:19:40.980285,128291,121968
2023-01-14 20:19:41.000284,129442,122427
2023-01-14 20:19:41.020285,128565,122066
2023-01-14 20:19:41.040294,129109,122299
2023-01-14 20:19:41.060287,128820,122150
2023-01-14 20:19:41.080285,127904,121800
2023-01-14 20:19:41.100459,128967,122234
2023-01-14 20:19:41.120284,127606,121659
2023-01-14 20:19:41.140296,129013,122242
2023-01-14 20:19:41.160282,127806,121763
2023-01-14 20:19:41.180278,129044,122214
2023-01-14 20:19:41.200278,127991,121837
2023-01-14 20:19:41.220279,129119,122209
2023-01-14 20:19:41.240287,128149,121911
2023-01-14 20:19:41.26028,129206,122258
2023-01-14 20:19:41.280287,128331,121991
2023-01-14 20:19:41.300284,129265,122319
2023-01-14 20:19:41.320285,128415,122054
2023-01-14 20:19:41.340292,129348,122360
2023-01-14 20:19:41.360287,128399,122027
2023-01-14 20:19:41.380285,129420,122398
2023-01-14 20:19:41.400284,128449,122012
2023-01-14 20:19:41.420284,129498,122424
2023-01-14 20:19:41.440292,128599,122080
2023-01-14 20:19:41.460281,129584,122441
2023-01-14 20:19:41.480285,128688,122107
2023-01-14 20:19:41.500282,129659,122481
2023-01-14 20:19:41.520284,128766,122151
2023-01-14 20:19:41.540293,129682,122522
2023-01-14 20:19:41.560282,128866,122194
2023-01-14 20:19:41.580279,129281,122380
2023-01-14 20:19:41.600279,128972,122242
2023-01-14 20:19:41.620285,128065,121899
2023-01-14 20:19:41.640293,129052,122282
2023-01-14 20:19:41.66028,127692,121767
2023-01-14 20:19:41.680287,129097,122329
2023-01-14 20:19:41.700279,127859,121847
2023-01-14 20:19:41.720288,129118,122324
2023-01-14 20:19:41.740297,128076,121942
2023-01-14 20:19:41.760319,128966,122313
2023-01-14 20:19:41.780284,128376,122046
2023-01-14 20:19:41.800283,127822,121843
2023-01-14 20:19:41.820283,128680,122154
2023-01-14 20:19:41.840292,127273,121579
2023-01-14 20:19:41.860281,128838,122215
2023-01-14 20:19:41.880282,127319,121580
2023-01-14 20:19:41.900279,128892,122217
2023-01-14 20:19:41.920286,127512,121663
2023-01-14 20:19:41.940295,128944,122220
2023-01-14 20:19:41.960285,127652,121690
2023-01-14 20:19:41.980286,129060,122257
2023-01-14 20:19:42.000283,127956,121804
2023-01-14 20:19:42.020287,129147,122291
2023-01-14 20:19:42.040291,128284,121929
2023-01-14 20:19:42.060279,129217,122323
2023-01-14 20:19:42.080284,128352,121948
2023-01-14 20:19:42.100282,129264,122354
2023-01-14 20:19:42.120282,128471,121954
2023-01-14 20:19:42.140292,129291,122370
2023-01-14 20:19:42.160286,128616,121967
2023-01-14 20:19:42.180283,129333,122396
2023-01-14 20:19:42.200291,128809,122016
2023-01-14 20:19:42.220288,129391,122410
2023-01-14 20:19:42.240291,128864,122068
2023-01-14 20:19:42.26028,129442,122427
2023-01-14 20:19:42.280285,128995,122118
2023-01-14 20:19:42.300283,129109,122299
2023-01-14 20:19:42.320285,129070,122168
2023-01-14 20:19:42.340295,127904,121800
2023-01-14 20:19:42.360281,129094,122198
2023-01-14 20:19:42.380285,127606,121659
2023-01-14 20:19:42.400283,129108,122207
2023-01-14 20:19:42.420284,127806,121763
2023-01-14 20:19:42.44029,129173,122237
2023-01-14 20:19:42.460281,127991,121837
2023-01-14 20:19:42.48028,129208,122248
2023-01-14 20:19:42.500284,128149,121911
2023-01-14 20:19:42.520286,129197,122259
2023-01-14 20:19:42.540292,128331,121991
2023-01-14 20:19:42.560285,128443,121950
2023-01-14 20:19:42.580285,128415,122054
2023-01-14 20:19:42.600283,127371,121449
2023-01-14 20:19:42.620285,128399,122027
2023-01-14 20:19:42.640291,127334,121392
2023-01-14 20:19:42.66028,128449,122012
2023-01-14 20:19:42.68028,127625,121525
2023-01-14 20:19:42.700284,128599,122080
2023-01-14 20:19:42.720284,127956,121675
2023-01-14 20:19:42.740291,128688,122107
2023-01-14 20:19:42.760283,128208,121762
2023-01-14 20:19:42.780293,128766,122151
2023-01-14 20:19:42.800283,128467,121848
2023-01-14 20:19:42.820284,128866,122194
2023-01-14 20:19:42.840289,128502,121887
2023-01-14 20:19:42.860279,128972,122242
2023-01-14 20:19:42.880316,128432,121854
2023-01-14 20:19:42.90028,129052,122282
2023-01-14 20:19:42.920285,128493,121907
2023-01-14 20:19:42.940293,129097,122329
2023-01-14 20:19:42.960285,128589,121949
2023-01-14 20:19:42.980282,129118,122324
2023-01-14 20:19:43.000284,128695,122016
2023-01-14 20:19:43.020287,128966,122313
2023-01-14 20:19:43.040292,128738,122074
2023-01-14 20:19:43.060281,127822,121843
2023-01-14 20:19:43.080284,128783,122102
2023-01-14 20:19:43.100283,127273,121579
2023-01-14 20:19:43.120285,128813,122128
2023-01-14 20:19:43.140294,127319,121580
2023-01-14 20:19:43.160284,128879,122141
2023-01-14 20:19:43.180282,127512,121663
2023-01-14 20:19:43.200284,128942,122170
2023-01-14 20:19:43.220287,127652,121690
2023-01-14 20:19:43.240312,129052,122199
2023-01-14 20:19:43.260278,127956,121804
2023-01-14 20:19:43.280285,128975,122181
2023-01-14 20:19:43.300285,128284,121929
2023-01-14 20:19:43.320282,127841,121698
2023-01-14 20:19:43.340288,128352,121948
2023-01-14 20:19:43.360281,127215,121455
2023-01-14 20:19:43.380283,128471,121954
2023-01-14 20:19:43.400283,127232,121469
2023-01-14 20:19:43.420283,128616,121967
2023-01-14 20:19:43.440293,127300,121513
2023-01-14 20:19:43.46028,128809,122016
2023-01-14 20:19:43.480284,127406,121559
2023-01-14 20:19:43.500279,128864,122068
2023-01-14 20:19:43.520282,127596,121643
2023-01-14 20:19:43.540293,128995,122118
2023-01-14 20:19:43.560284,127776,121715
2023-01-14 20:19:43.580303,129070,122168
2023-01-14 20:19:43.600283,127730,121683
2023-01-14 20:19:43.620283,129094,122198
2023-01-14 20:19:43.640291,127799,121659
2023-01-14 20:19:43.660289,129108,122207
2023-01-14 20:19:43.680278,127994,121724
2023-01-14 20:19:43.70033,129173,122237
2023-01-14 20:19:43.7203,128156,121800
2023-01-14 20:19:43.740314,129208,122248
2023-01-14 20:19:43.760307,128218,121863
2023-01-14 20:19:43.780297,129197,122259
2023-01-14 20:19:43.800259,128262,121894
2023-01-14 20:19:43.820259,128443,121950
2023-01-14 20:19:43.84026,128358,121954
2023-01-14 20:19:43.860257,127371,121449
2023-01-14 20:19:43.880266,128465,122030
2023-01-14 20:19:43.900277,127334,121392
2023-01-14 20:19:43.920285,128484,122041
2023-01-14 20:19:43.940416,127625,121525
2023-01-14 20:19:43.960277,128540,122068
2023-01-14 20:19:43.980282,127956,121675
2023-01-14 20:19:44.000284,128649,122103
2023-01-14 20:19:44.020283,128208,121762
2023-01-14 20:19:44.040294,128750,122152
2023-01-14 20:19:44.060287,128467,121848
2023-01-14 20:19:44.080283,127969,121811
2023-01-14 20:19:44.100283,128502,121887
2023-01-14 20:19:44.120284,126954,121389
2023-01-14 20:19:44.140293,128432,121854
2023-01-14 20:19:44.160276,126795,121314
2023-01-14 20:19:44.180277,128493,121907
2023-01-14 20:19:44.200293,126828,121338
2023-01-14 20:19:44.220283,128589,121949
2023-01-14 20:19:44.240291,126873,121356
2023-01-14 20:19:44.260284,128695,122016
2023-01-14 20:19:44.280282,126982,121395
2023-01-14 20:19:44.300316,128738,122074
2023-01-14 20:19:44.320283,127128,121456
2023-01-14 20:19:44.34029,128783,122102
2023-01-14 20:19:44.360276,127094,121440
2023-01-14 20:19:44.380275,128813,122128
2023-01-14 20:19:44.40028,127065,121412
2023-01-14 20:19:44.420281,128879,122141
2023-01-14 20:19:44.440296,127107,121424
2023-01-14 20:19:44.460275,128942,122170
2023-01-14 20:19:44.480282,127245,121475
2023-01-14 20:19:44.500282,129052,122199
2023-01-14 20:19:44.520282,127396,121533
2023-01-14 20:19:44.540297,128975,122181
2023-01-14 20:19:44.56028,127499,121589
2023-01-14 20:19:44.580278,127841,121698
2023-01-14 20:19:44.600282,127559,121638
2023-01-14 20:19:44.620281,127215,121455
2023-01-14 20:19:44.640292,127679,121684
2023-01-14 20:19:44.66028,127232,121469
2023-01-14 20:19:44.680281,127691,121695
2023-01-14 20:19:44.700275,127300,121513
2023-01-14 20:19:44.720282,127779,121701
2023-01-14 20:19:44.740291,127406,121559
2023-01-14 20:19:44.760278,128002,121772
2023-01-14 20:19:44.780278,127596,121643
2023-01-14 20:19:44.800281,128217,121854
2023-01-14 20:19:44.820281,127776,121715
2023-01-14 20:19:44.840292,128387,121905
2023-01-14 20:19:44.860283,127730,121683
2023-01-14 20:19:44.880282,127805,121611
2023-01-14 20:19:44.900276,127799,121659
2023-01-14 20:19:44.920283,126863,121146
2023-01-14 20:19:44.940291,127994,121724
2023-01-14 20:19:44.960279,126797,121131
2023-01-14 20:19:44.980279,128156,121800
2023-01-14 20:19:45.000278,126943,121220
2023-01-14 20:19:45.020282,128218,121863
2023-01-14 20:19:45.040291,127037,121279
2023-01-14 20:19:45.060282,128262,121894
2023-01-14 20:19:45.080281,127194,121361
2023-01-14 20:19:45.10028,128358,121954
2023-01-14 20:19:45.12028,127478,121514
2023-01-14 20:19:45.14029,128465,122030
2023-01-14 20:19:45.160279,127495,121525
2023-01-14 20:19:45.180277,128484,122041
2023-01-14 20:19:45.200281,127425,121477
2023-01-14 20:19:45.22028,128540,122068
2023-01-14 20:19:45.240291,127676,121549
2023-01-14 20:19:45.260277,128649,122103
2023-01-14 20:19:45.280282,127964,121655
2023-01-14 20:19:45.30028,128750,122152
2023-01-14 20:19:45.320281,128180,121752
2023-01-14 20:19:45.340291,127969,121811
2023-01-14 20:19:45.360278,128313,121820
2023-01-14 20:19:45.380278,126954,121389
2023-01-14 20:19:45.400276,128410,121887
2023-01-14 20:19:45.420281,126795,121314
2023-01-14 20:19:45.44029,128508,121954
2023-01-14 20:19:45.460282,126828,121338
2023-01-14 20:19:45.480281,128586,121978
2023-01-14 20:19:45.50028,126873,121356
2023-01-14 20:19:45.520283,128705,121986
2023-01-14 20:19:45.54029,126982,121395
2023-01-14 20:19:45.560278,128793,122010
2023-01-14 20:19:45.580278,127128,121456
2023-01-14 20:19:45.600287,128916,122043
2023-01-14 20:19:45.620283,127094,121440
2023-01-14 20:19:45.640328,129079,122087
2023-01-14 20:19:45.660279,127065,121412
2023-01-14 20:19:45.68028,128988,122046
2023-01-14 20:19:45.700279,127107,121424
2023-01-14 20:19:45.72028,127876,121560
2023-01-14 20:19:45.740291,127245,121475
2023-01-14 20:19:45.760288,127146,121274
2023-01-14 20:19:45.780278,127396,121533
2023-01-14 20:19:45.800276,127262,121346
2023-01-14 20:19:45.820282,127499,121589
2023-01-14 20:19:45.84029,127497,121473
2023-01-14 20:19:45.860281,127559,121638
2023-01-14 20:19:45.88028,127631,121537
2023-01-14 20:19:45.900279,127679,121684
2023-01-14 20:19:45.92028,127874,121646
2023-01-14 20:19:45.940288,127691,121695
2023-01-14 20:19:45.960277,127964,121694
2023-01-14 20:19:45.980277,127779,121701
2023-01-14 20:19:46.000277,127677,121589
2023-01-14 20:19:46.020281,128002,121772
2023-01-14 20:19:46.040309,127582,121573
2023-01-14 20:19:46.060276,128217,121854
2023-01-14 20:19:46.080276,127682,121589
2023-01-14 20:19:46.100277,128387,121905
2023-01-14 20:19:46.120279,127775,121670
2023-01-14 20:19:46.140283,127805,121611
2023-01-14 20:19:46.160272,127957,121752
2023-01-14 20:19:46.180271,126863,121146
2023-01-14 20:19:46.20028,128013,121804
2023-01-14 20:19:46.220284,126797,121131
2023-01-14 20:19:46.240291,128047,121836
2023-01-14 20:19:46.260282,126943,121220
2023-01-14 20:19:46.280278,128096,121836
2023-01-14 20:19:46.300281,127037,121279
2023-01-14 20:19:46.32028,128217,121859
2023-01-14 20:19:46.340287,127194,121361
2023-01-14 20:19:46.360278,127194,121919
2023-01-14 20:19:46.380277,127478,121514
2023-01-14 20:19:46.40028,127478,121514
2023-01-14 20:19:46.420281,127495,121525
2023-01-14 20:19:46.440289,127495,121998
2023-01-14 20:19:46.460282,127425,121477
2023-01-14 20:19:46.480279,127425,121477
2023-01-14 20:19:46.500279,127676,121549
2023-01-14 20:19:46.52028,127676,121549
2023-01-14 20:19:46.540288,127964,121655
2023-01-14 20:19:46.56028,127964,121655
2023-01-14 20:19:46.580277,128180,121752
2023-01-14 20:19:46.600286,128180,121752
