2023-01-15 20:02:07.589187,0.174108677679562
2023-01-15 20:02:07.602394,0.20749831442182104
2023-01-15 20:02:07.620385,0.21022858871600358
2023-01-15 20:02:07.639878,0.21842357686096975
2023-01-15 20:02:07.660261,0.15915114810142364
2023-01-15 20:02:07.67992,0.21432530155360946
2023-01-15 20:02:07.699869,0.21500823890918905
2023-01-15 20:02:07.719872,0.1204944101670111
2023-01-15 20:02:07.739814,0.1890870960949217
2023-01-15 20:02:07.759704,0.19931165309822133
2023-01-15 20:02:07.779807,0.19249419984582047
2023-01-15 20:02:07.799696,0.14285761543195497
2023-01-15 20:02:07.819695,0.1863621916046411
2023-01-15 20:02:07.839721,0.2095459550871121
2023-01-15 20:02:07.859792,0.16594743844858642
2023-01-15 20:02:07.879896,0.1863621916046411
2023-01-15 20:02:07.899856,0.15235916460599774
2023-01-15 20:02:07.919702,0.17478906138274036
2023-01-15 20:02:07.939738,0.2115939861092819
2023-01-15 20:02:07.959687,0.1959023853418343
2023-01-15 20:02:07.979775,0.18704335286781285
2023-01-15 20:02:07.999736,0.20272200363056678
2023-01-15 20:02:08.019678,0.19999363656610927
2023-01-15 20:02:08.039725,0.20545106400181562
2023-01-15 20:02:08.059699,0.22115662887944043
2023-01-15 20:02:08.079766,0.133364488453501
2023-01-15 20:02:08.099687,0.17955295609457714
2023-01-15 20:02:08.11968,0.22935995655630886
2023-01-15 20:02:08.139705,0.12117139694097301
2023-01-15 20:02:08.159681,0.18295703369754324
2023-01-15 20:02:08.179757,0.19044980781883028
2023-01-15 20:02:08.199683,0.13404228988319947
2023-01-15 20:02:08.219671,0.20203984687726192
2023-01-15 20:02:08.239702,0.21227674988193876
2023-01-15 20:02:08.259779,0.05368410200223399
2023-01-15 20:02:08.279781,0.1959023853418343
2023-01-15 20:02:08.299689,0.2115939861092819
2023-01-15 20:02:08.319683,0.16390809888128582
2023-01-15 20:02:08.339718,0.19999363656610927
2023-01-15 20:02:08.359745,0.14489295229039612
2023-01-15 20:02:08.380311,0.1761499582817262
2023-01-15 20:02:08.400236,0.1822761317690727
2023-01-15 20:02:08.420184,0.16118958279979007
2023-01-15 20:02:08.440537,0.1890870960949217
2023-01-15 20:02:08.460798,0.1822761317690727
2023-01-15 20:02:08.480148,0.18363797883817798
2023-01-15 20:02:08.500077,0.1543963076788044
2023-01-15 20:02:08.520074,0.19999363656610927
2023-01-15 20:02:08.54011,0.21091126572201527
2023-01-15 20:02:08.560112,0.17070740646255425
2023-01-15 20:02:08.580131,0.1863621916046411
2023-01-15 20:02:08.600075,0.18431896719509067
2023-01-15 20:02:08.62007,0.15711310101967813
2023-01-15 20:02:08.640095,0.19317575038893042
2023-01-15 20:02:08.660143,0.18840580510883612
2023-01-15 20:02:08.680171,0.15847175601112184
2023-01-15 20:02:08.700076,0.17819162742339695
2023-01-15 20:02:08.720072,0.20135773345150254
2023-01-15 20:02:08.740097,0.1856810735742072
2023-01-15 20:02:08.760106,0.1822761317690727
2023-01-15 20:02:08.780132,0.1734283371351172
2023-01-15 20:02:08.800079,0.17138757441312333
2023-01-15 20:02:08.820071,0.18363797883817798
2023-01-15 20:02:08.840155,0.1720677855060035
2023-01-15 20:02:08.860112,0.1822761317690727
2023-01-15 20:02:08.880129,0.19999363656610927
2023-01-15 20:02:08.900103,0.1856810735742072
2023-01-15 20:02:08.92007,0.18840580510883612
2023-01-15 20:02:08.940116,0.19522066167829463
2023-01-15 20:02:08.960076,0.2115939861092819
2023-01-15 20:02:08.980126,0.19999363656610927
2023-01-15 20:02:09.000072,0.1979478160914316
2023-01-15 20:02:09.020872,0.1734283371351172
2023-01-15 20:02:09.040297,0.19249419984582047
2023-01-15 20:02:09.060236,0.21569121967084254
2023-01-15 20:02:09.080045,0.1537172169534645
2023-01-15 20:02:09.099917,0.16118958279979007
2023-01-15 20:02:09.120169,0.20613343745478352
2023-01-15 20:02:09.139998,0.19385734420596504
2023-01-15 20:02:09.159897,0.1543963076788044
2023-01-15 20:02:09.180361,0.1727480397452997
2023-01-15 20:02:09.200054,0.16662730451786906
2023-01-15 20:02:09.220019,0.16390809888128582
2023-01-15 20:02:09.240106,0.17683047148574899
2023-01-15 20:02:09.260017,0.187724557367839
2023-01-15 20:02:09.280275,0.21091126572201527
2023-01-15 20:02:09.300032,0.19999363656610927
2023-01-15 20:02:09.320183,0.17002728165019204
2023-01-15 20:02:09.340081,0.19453898130104574
2023-01-15 20:02:09.360055,0.1754694882487593
2023-01-15 20:02:09.380166,0.19726596254427886
2023-01-15 20:02:09.40004,0.1754694882487593
2023-01-15 20:02:09.420013,0.15847175601112184
2023-01-15 20:02:09.44011,0.19385734420596504
2023-01-15 20:02:09.460013,0.19862971294137066
2023-01-15 20:02:09.480152,0.1822761317690727
2023-01-15 20:02:09.500014,0.16186914718871923
2023-01-15 20:02:09.520044,0.1727480397452997
2023-01-15 20:02:09.540042,0.16322840522536922
2023-01-15 20:02:09.560007,0.17138757441312333
2023-01-15 20:02:09.580144,0.18431896719509067
2023-01-15 20:02:09.600033,0.17955295609457714
2023-01-15 20:02:09.619996,0.1959023853418343
2023-01-15 20:02:09.640075,0.174108677679562
2023-01-15 20:02:09.660032,0.1822761317690727
2023-01-15 20:02:09.680199,0.18295703369754324
2023-01-15 20:02:09.700093,0.15235916460599774
2023-01-15 20:02:09.720211,0.2040864471363268
2023-01-15 20:02:09.740171,0.19658415229578782
2023-01-15 20:02:09.760218,0.15779240698523814
2023-01-15 20:02:09.780131,0.1761499582817262
2023-01-15 20:02:09.800224,0.174108677679562
2023-01-15 20:02:09.820112,0.174108677679562
2023-01-15 20:02:09.840206,0.19862971294137066
2023-01-15 20:02:09.860085,0.174108677679562
2023-01-15 20:02:09.880133,0.187724557367839
2023-01-15 20:02:09.900086,0.1564338381103479
2023-01-15 20:02:09.920147,0.15847175601112184
2023-01-15 20:02:09.940247,0.19999363656610927
2023-01-15 20:02:09.960099,0.20135773345150254
2023-01-15 20:02:09.980144,0.17751102786493625
2023-01-15 20:02:10.000084,0.16866716142367352
2023-01-15 20:02:10.020072,0.20340420371554543
2023-01-15 20:02:10.040221,0.1822761317690727
2023-01-15 20:02:10.060079,0.17002728165019204
2023-01-15 20:02:10.080162,0.18295703369754324
2023-01-15 20:02:10.10013,0.17887227016524054
2023-01-15 20:02:10.120077,0.17955295609457714
2023-01-15 20:02:10.140112,0.1959023853418343
2023-01-15 20:02:10.16008,0.1856810735742072
2023-01-15 20:02:10.180157,0.20135773345150254
2023-01-15 20:02:10.200122,0.16662730451786906
2023-01-15 20:02:10.220087,0.15847175601112184
2023-01-15 20:02:10.240109,0.17819162742339695
2023-01-15 20:02:10.260247,0.15235916460599774
2023-01-15 20:02:10.280194,0.1761499582817262
2023-01-15 20:02:10.300118,0.1979478160914316
2023-01-15 20:02:10.32007,0.1822761317690727
2023-01-15 20:02:10.340105,0.16594743844858642
2023-01-15 20:02:10.360083,0.1761499582817262
2023-01-15 20:02:10.380129,0.2068158542600748
2023-01-15 20:02:10.400128,0.15847175601112184
2023-01-15 20:02:10.420074,0.16594743844858642
2023-01-15 20:02:10.440107,0.20749831442182104
2023-01-15 20:02:10.460086,0.16051006149166203
2023-01-15 20:02:10.480154,0.19931165309822133
2023-01-15 20:02:10.500177,0.18431896719509067
2023-01-15 20:02:10.520083,0.16526761548879507
2023-01-15 20:02:10.540104,0.2040864471363268
2023-01-15 20:02:10.5601,0.15915114810142364
2023-01-15 20:02:10.580127,0.1815952730486532
2023-01-15 20:02:10.600071,0.1863621916046411
2023-01-15 20:02:10.620076,0.187724557367839
2023-01-15 20:02:10.640094,0.15983058326023855
2023-01-15 20:02:10.660117,0.18431896719509067
2023-01-15 20:02:10.680128,0.1761499582817262
2023-01-15 20:02:10.700073,0.15507544144400368
2023-01-15 20:02:10.720072,0.187724557367839
2023-01-15 20:02:10.740146,0.19931165309822133
2023-01-15 20:02:10.760089,0.19522066167829463
2023-01-15 20:02:10.780124,0.20749831442182104
2023-01-15 20:02:10.80012,0.16730721370074356
2023-01-15 20:02:10.820082,0.16866716142367352
2023-01-15 20:02:10.840087,0.1822761317690727
2023-01-15 20:02:10.860136,0.1530381692638925
2023-01-15 20:02:10.880142,0.17887227016524054
2023-01-15 20:02:10.90008,0.18363797883817798
2023-01-15 20:02:10.920105,0.1959023853418343
2023-01-15 20:02:10.940103,0.18976843033021362
2023-01-15 20:02:10.960114,0.1727480397452997
2023-01-15 20:02:10.980227,0.16866716142367352
2023-01-15 20:02:11.000091,0.16390809888128582
2023-01-15 20:02:11.020221,0.15168020297568977
2023-01-15 20:02:11.040175,0.15575461825315406
2023-01-15 20:02:11.060097,0.18499999877239548
2023-01-15 20:02:11.080132,0.21091126572201527
2023-01-15 20:02:11.100082,0.15168020297568977
2023-01-15 20:02:11.120105,0.16254875466254637
2023-01-15 20:02:11.140097,0.21295955704412137
2023-01-15 20:02:11.160071,0.15575461825315406
2023-01-15 20:02:11.180129,0.19726596254427886
2023-01-15 20:02:11.200092,0.2040864471363268
2023-01-15 20:02:11.220069,0.15032240878147599
2023-01-15 20:02:11.240235,0.18091445753217217
2023-01-15 20:02:11.260108,0.19385734420596504
2023-01-15 20:02:11.280141,0.1822761317690727
2023-01-15 20:02:11.300081,0.1761499582817262
2023-01-15 20:02:11.320071,0.20340420371554543
2023-01-15 20:02:11.340111,0.1537172169534645
2023-01-15 20:02:11.360083,0.1979478160914316
2023-01-15 20:02:11.38013,0.20545106400181562
2023-01-15 20:02:11.400085,0.15032240878147599
2023-01-15 20:02:11.420081,0.24304609068456462
2023-01-15 20:02:11.440114,0.20272200363056678
2023-01-15 20:02:11.460095,0.16186914718871923
2023-01-15 20:02:11.480147,0.23688517529502975
2023-01-15 20:02:11.500077,0.18295703369754324
2023-01-15 20:02:11.520082,0.22730853776033932
2023-01-15 20:02:11.540112,0.23756954723896004
2023-01-15 20:02:11.560303,0.21842357686096975
2023-01-15 20:02:11.580126,0.22799230053948746
2023-01-15 20:02:11.600132,0.23551656201929977
2023-01-15 20:02:11.620074,0.2677250793085484
2023-01-15 20:02:11.640111,0.24304609068456462
2023-01-15 20:02:11.660195,0.2533221282112921
2023-01-15 20:02:11.680128,0.24099206018549005
2023-01-15 20:02:11.70008,0.23414812286538242
2023-01-15 20:02:11.720065,0.27733775725789334
2023-01-15 20:02:11.740104,0.23414812286538242
2023-01-15 20:02:11.760088,0.16730721370074356
2023-01-15 20:02:11.780125,0.25606406257274544
2023-01-15 20:02:11.800071,0.17955295609457714
2023-01-15 20:02:11.820066,0.1856810735742072
2023-01-15 20:02:11.840136,0.21091126572201527
2023-01-15 20:02:11.860091,0.16662730451786906
2023-01-15 20:02:11.88016,0.18363797883817798
2023-01-15 20:02:11.900071,0.1734283371351172
2023-01-15 20:02:11.920085,0.16730721370074356
2023-01-15 20:02:11.940129,0.19726596254427886
2023-01-15 20:02:11.960077,0.15507544144400368
2023-01-15 20:02:11.98012,0.17955295609457714
2023-01-15 20:02:12.000067,0.17002728165019204
2023-01-15 20:02:12.020366,0.16730721370074356
2023-01-15 20:02:12.040345,0.16526761548879507
2023-01-15 20:02:12.060221,0.1720677855060035
2023-01-15 20:02:12.080147,0.16662730451786906
2023-01-15 20:02:12.10008,0.14625005843569047
2023-01-15 20:02:12.120109,0.174108677679562
2023-01-15 20:02:12.140301,0.16730721370074356
2023-01-15 20:02:12.160154,0.15235916460599774
2023-01-15 20:02:12.180145,0.1754694882487593
2023-01-15 20:02:12.200081,0.1754694882487593
2023-01-15 20:02:12.220078,0.15779240698523814
2023-01-15 20:02:12.240144,0.19931165309822133
2023-01-15 20:02:12.260079,0.17751102786493625
2023-01-15 20:02:12.28013,0.18499999877239548
2023-01-15 20:02:12.300076,0.20272200363056678
2023-01-15 20:02:12.320075,0.14625005843569047
2023-01-15 20:02:12.340142,0.22935995655630886
2023-01-15 20:02:12.360085,0.20749831442182104
2023-01-15 20:02:12.380142,0.21227674988193876
2023-01-15 20:02:12.400102,0.213642407599966
2023-01-15 20:02:12.420073,0.23141176679008627
2023-01-15 20:02:12.440105,0.19453898130104574
2023-01-15 20:02:12.460086,0.2068158542600748
2023-01-15 20:02:12.480116,0.2095459550871121
2023-01-15 20:02:12.500068,0.18295703369754324
2023-01-15 20:02:12.520069,0.1761499582817262
2023-01-15 20:02:12.540103,0.2068158542600748
2023-01-15 20:02:12.5601,0.20135773345150254
2023-01-15 20:02:12.580135,0.21432530155360946
2023-01-15 20:02:12.600066,0.17070740646255425
2023-01-15 20:02:12.620164,0.19658415229578782
2023-01-15 20:02:12.6401,0.16594743844858642
2023-01-15 20:02:12.660139,0.16118958279979007
2023-01-15 20:02:12.680143,0.15915114810142364
2023-01-15 20:02:12.700098,0.1564338381103479
2023-01-15 20:02:12.720061,0.16594743844858642
2023-01-15 20:02:12.740112,0.14150093905168643
2023-01-15 20:02:12.760094,0.13404228988319947
2023-01-15 20:02:12.78012,0.16390809888128582
2023-01-15 20:02:12.800102,0.14692867599249154
2023-01-15 20:02:12.820155,0.12726620619439336
2023-01-15 20:02:12.840157,0.16934719997193287
2023-01-15 20:02:12.860103,0.13675392481620743
2023-01-15 20:02:12.880126,0.16390809888128582
2023-01-15 20:02:12.900317,0.16322840522536922
2023-01-15 20:02:12.920116,0.14692867599249154
2023-01-15 20:02:12.940138,0.1720677855060035
2023-01-15 20:02:12.95998,0.1720677855060035
2023-01-15 20:02:12.980031,0.12929858091134191
2023-01-15 20:02:12.999946,0.14489295229039612
2023-01-15 20:02:13.020006,0.16730721370074356
2023-01-15 20:02:13.040029,0.15235916460599774
2023-01-15 20:02:13.059828,0.14692867599249154
2023-01-15 20:02:13.079913,0.18840580510883612
2023-01-15 20:02:13.099802,0.13200901432983567
2023-01-15 20:02:13.119797,0.12658883371405882
2023-01-15 20:02:13.13982,0.16594743844858642
2023-01-15 20:02:13.15988,0.17070740646255425
2023-01-15 20:02:13.179921,0.16526761548879507
2023-01-15 20:02:13.199861,0.1727480397452997
2023-01-15 20:02:13.219851,0.1089921855905725
2023-01-15 20:02:13.239874,0.16934719997193287
2023-01-15 20:02:13.259826,0.15915114810142364
2023-01-15 20:02:13.27988,0.11372689773272367
2023-01-15 20:02:13.299829,0.15915114810142364
2023-01-15 20:02:13.319804,0.18840580510883612
2023-01-15 20:02:13.339828,0.1313313416277188
2023-01-15 20:02:13.359893,0.1734283371351172
2023-01-15 20:02:13.379927,0.187724557367839
2023-01-15 20:02:13.399872,0.13607595169266967
2023-01-15 20:02:13.419853,0.15507544144400368
2023-01-15 20:02:13.439884,0.18363797883817798
2023-01-15 20:02:13.459824,0.13675392481620743
2023-01-15 20:02:13.479858,0.17002728165019204
2023-01-15 20:02:13.499837,0.16186914718871923
2023-01-15 20:02:13.519843,0.1530381692638925
2023-01-15 20:02:13.539882,0.19113122856489057
2023-01-15 20:02:13.559881,0.16730721370074356
2023-01-15 20:02:13.579926,0.15507544144400368
2023-01-15 20:02:13.59987,0.14082266530691223
2023-01-15 20:02:13.619855,0.1564338381103479
2023-01-15 20:02:13.639876,0.11981746622897595
2023-01-15 20:02:13.659859,0.16390809888128582
2023-01-15 20:02:13.679869,0.16526761548879507
2023-01-15 20:02:13.699802,0.12320261431908154
2023-01-15 20:02:13.719872,0.14557148386968702
2023-01-15 20:02:13.739828,0.13946624668767665
2023-01-15 20:02:13.759882,0.12726620619439336
2023-01-15 20:02:13.77992,0.16662730451786906
2023-01-15 20:02:13.799858,0.16594743844858642
2023-01-15 20:02:13.819848,0.1238797724774155
2023-01-15 20:02:13.839873,0.14421446369373303
2023-01-15 20:02:13.859884,0.16186914718871923
2023-01-15 20:02:13.879892,0.14014443452026934
2023-01-15 20:02:13.899807,0.16526761548879507
2023-01-15 20:02:13.919795,0.16254875466254637
2023-01-15 20:02:13.939825,0.15100128436887894
2023-01-15 20:02:13.959911,0.16118958279979007
2023-01-15 20:02:13.979926,0.1435360180756139
2023-01-15 20:02:14.000011,0.17138757441312333
2023-01-15 20:02:14.019847,0.14150093905168643
2023-01-15 20:02:14.039872,0.1754694882487593
2023-01-15 20:02:14.059833,0.10561153143386277
2023-01-15 20:02:14.079888,0.14082266530691223
2023-01-15 20:02:14.100153,0.15032240878147599
2023-01-15 20:02:14.120162,0.14625005843569047
2023-01-15 20:02:14.139981,0.14828604009482954
2023-01-15 20:02:14.160212,0.12997612492254543
2023-01-15 20:02:14.180143,0.10763979565563339
2023-01-15 20:02:14.199878,0.1645878356343947
2023-01-15 20:02:14.219871,0.13065371182664665
2023-01-15 20:02:14.239903,0.15032240878147599
2023-01-15 20:02:14.259841,0.174108677679562
2023-01-15 20:02:14.279867,0.10493552885855462
2023-01-15 20:02:14.299808,0.15100128436887894
2023-01-15 20:02:14.319798,0.174108677679562
2023-01-15 20:02:14.339828,0.11711011875480004
2023-01-15 20:02:14.359904,0.14692867599249154
2023-01-15 20:02:14.379925,0.14828604009482954
2023-01-15 20:02:14.399883,0.1144034563303042
2023-01-15 20:02:14.419858,0.15100128436887894
2023-01-15 20:02:14.439885,0.16186914718871923
2023-01-15 20:02:14.459842,0.14082266530691223
2023-01-15 20:02:14.479888,0.13539802149870728
2023-01-15 20:02:14.499807,0.14421446369373303
2023-01-15 20:02:14.519795,0.14828604009482954
2023-01-15 20:02:14.539828,0.15711310101967813
2023-01-15 20:02:14.559909,0.14217925575867332
2023-01-15 20:02:14.579937,0.14760733654417585
2023-01-15 20:02:14.599867,0.13472013423024282
2023-01-15 20:02:14.619851,0.15847175601112184
2023-01-15 20:02:14.639947,0.11034474659304477
2023-01-15 20:02:14.659867,0.14692867599249154
2023-01-15 20:02:14.679872,0.14760733654417585
2023-01-15 20:02:14.699805,0.15032240878147599
2023-01-15 20:02:14.719918,0.14557148386968702
2023-01-15 20:02:14.739843,0.15983058326023855
2023-01-15 20:02:14.759953,0.10831596924168975
2023-01-15 20:02:14.779963,0.13675392481620743
2023-01-15 20:02:14.800038,0.14760733654417585
2023-01-15 20:02:14.819887,0.1252342173669377
2023-01-15 20:02:14.839914,0.133364488453501
2023-01-15 20:02:14.859844,0.15915114810142364
2023-01-15 20:02:14.879923,0.10696366482834717
2023-01-15 20:02:14.89981,0.1313313416277188
2023-01-15 20:02:14.919794,0.1530381692638925
2023-01-15 20:02:14.939833,0.10966844470633841
2023-01-15 20:02:14.959972,0.14014443452026934
2023-01-15 20:02:14.979975,0.14964357620939217
2023-01-15 20:02:14.999867,0.14828604009482954
2023-01-15 20:02:15.019956,0.16730721370074356
2023-01-15 20:02:15.039891,0.15100128436887894
2023-01-15 20:02:15.05983,0.13607595169266967
2023-01-15 20:02:15.079925,0.1543963076788044
2023-01-15 20:02:15.099843,0.14285761543195497
2023-01-15 20:02:15.119795,0.14896478664853924
2023-01-15 20:02:15.139828,0.16866716142367352
2023-01-15 20:02:15.15991,0.11778689138977824
2023-01-15 20:02:15.179958,0.14150093905168643
2023-01-15 20:02:15.199864,0.16798716600131114
2023-01-15 20:02:15.219851,0.10763979565563339
2023-01-15 20:02:15.239969,0.13065371182664665
2023-01-15 20:02:15.259836,0.1727480397452997
2023-01-15 20:02:15.279899,0.11711011875480004
2023-01-15 20:02:15.299809,0.12184842655492757
2023-01-15 20:02:15.319797,0.14557148386968702
2023-01-15 20:02:15.33982,0.15168020297568977
2023-01-15 20:02:15.359898,0.15032240878147599
2023-01-15 20:02:15.379951,0.15032240878147599
2023-01-15 20:02:15.39988,0.12726620619439336
2023-01-15 20:02:15.419926,0.13472013423024282
2023-01-15 20:02:15.439912,0.16186914718871923
2023-01-15 20:02:15.459853,0.11778689138977824
2023-01-15 20:02:15.479894,0.13200901432983567
2023-01-15 20:02:15.49981,0.17887227016524054
2023-01-15 20:02:15.519794,0.16118958279979007
2023-01-15 20:02:15.539822,0.14557148386968702
2023-01-15 20:02:15.560736,0.13539802149870728
2023-01-15 20:02:15.580213,0.13675392481620743
2023-01-15 20:02:15.600201,0.15100128436887894
2023-01-15 20:02:15.620166,0.12658883371405882
2023-01-15 20:02:15.640198,0.1252342173669377
2023-01-15 20:02:15.660144,0.17138757441312333
2023-01-15 20:02:15.680157,0.11305038193043804
2023-01-15 20:02:15.700073,0.15032240878147599
2023-01-15 20:02:15.720062,0.1530381692638925
2023-01-15 20:02:15.740112,0.11778689138977824
2023-01-15 20:02:15.760108,0.1537172169534645
2023-01-15 20:02:15.780157,0.14014443452026934
2023-01-15 20:02:15.800133,0.13065371182664665
2023-01-15 20:02:15.820092,0.14692867599249154
2023-01-15 20:02:15.840091,0.12184842655492757
2023-01-15 20:02:15.86009,0.13065371182664665
2023-01-15 20:02:15.880137,0.1313313416277188
2023-01-15 20:02:15.900075,0.11981746622897595
2023-01-15 20:02:15.920065,0.13878810180505383
2023-01-15 20:02:15.940099,0.14557148386968702
2023-01-15 20:02:15.960109,0.07321155140284384
2023-01-15 20:02:15.980107,0.17002728165019204
2023-01-15 20:02:16.000075,0.14489295229039612
2023-01-15 20:02:16.020094,0.14828604009482954
2023-01-15 20:02:16.040087,0.1645878356343947
2023-01-15 20:02:16.060125,0.13743194087339833
2023-01-15 20:02:16.080122,0.1543963076788044
2023-01-15 20:02:16.100078,0.1543963076788044
2023-01-15 20:02:16.120061,0.14082266530691223
2023-01-15 20:02:16.140095,0.16594743844858642
2023-01-15 20:02:16.160104,0.12117139694097301
2023-01-15 20:02:16.180113,0.13539802149870728
2023-01-15 20:02:16.200071,0.16866716142367352
2023-01-15 20:02:16.220067,0.14285761543195497
2023-01-15 20:02:16.240129,0.14082266530691223
2023-01-15 20:02:16.260076,0.13539802149870728
2023-01-15 20:02:16.280133,0.13472013423024282
2023-01-15 20:02:16.300073,0.13675392481620743
2023-01-15 20:02:16.320059,0.14896478664853924
2023-01-15 20:02:16.340096,0.12862107978896348
2023-01-15 20:02:16.360104,0.15507544144400368
2023-01-15 20:02:16.380105,0.1252342173669377
2023-01-15 20:02:16.400107,0.13472013423024282
2023-01-15 20:02:16.420068,0.16118958279979007
2023-01-15 20:02:16.440095,0.11778689138977824
2023-01-15 20:02:16.460112,0.15779240698523814
2023-01-15 20:02:16.480134,0.14557148386968702
2023-01-15 20:02:16.500068,0.11778689138977824
2023-01-15 20:02:16.520094,0.15983058326023855
2023-01-15 20:02:16.540148,0.16866716142367352
2023-01-15 20:02:16.560122,0.1238797724774155
2023-01-15 20:02:16.580115,0.13404228988319947
2023-01-15 20:02:16.600072,0.15032240878147599
2023-01-15 20:02:16.620068,0.1435360180756139
2023-01-15 20:02:16.640092,0.1564338381103479
2023-01-15 20:02:16.660121,0.16662730451786906
2023-01-15 20:02:16.680129,0.12794362155133784
2023-01-15 20:02:16.70011,0.14082266530691223
2023-01-15 20:02:16.720076,0.20476873389704023
2023-01-15 20:02:16.740095,0.12117139694097301
2023-01-15 20:02:16.760099,0.13743194087339833
2023-01-15 20:02:16.780101,0.1435360180756139
2023-01-15 20:02:16.800066,0.14557148386968702
2023-01-15 20:02:16.820068,0.15711310101967813
2023-01-15 20:02:16.840089,0.13268672993707142
2023-01-15 20:02:16.860146,0.16730721370074356
2023-01-15 20:02:16.880142,0.1435360180756139
2023-01-15 20:02:16.900073,0.1564338381103479
2023-01-15 20:02:16.920163,0.17138757441312333
2023-01-15 20:02:16.940104,0.12320261431908154
2023-01-15 20:02:16.960105,0.1645878356343947
2023-01-15 20:02:16.980154,0.1252342173669377
2023-01-15 20:02:17.000069,0.13743194087339833
2023-01-15 20:02:17.020177,0.1890870960949217
2023-01-15 20:02:17.040108,0.14150093905168643
2023-01-15 20:02:17.060092,0.1564338381103479
2023-01-15 20:02:17.080125,0.18295703369754324
2023-01-15 20:02:17.100075,0.13607595169266967
2023-01-15 20:02:17.120073,0.15507544144400368
2023-01-15 20:02:17.140095,0.19317575038893042
2023-01-15 20:02:17.16014,0.16730721370074356
2023-01-15 20:02:17.180115,0.16186914718871923
2023-01-15 20:02:17.200067,0.16798716600131114
2023-01-15 20:02:17.220064,0.14082266530691223
2023-01-15 20:02:17.240089,0.16594743844858642
2023-01-15 20:02:17.260078,0.16798716600131114
2023-01-15 20:02:17.28012,0.17955295609457714
2023-01-15 20:02:17.300077,0.18499999877239548
2023-01-15 20:02:17.320062,0.14692867599249154
2023-01-15 20:02:17.340093,0.17955295609457714
2023-01-15 20:02:17.360122,0.17478906138274036
2023-01-15 20:02:17.380132,0.14692867599249154
2023-01-15 20:02:17.400083,0.17887227016524054
2023-01-15 20:02:17.420059,0.1822761317690727
2023-01-15 20:02:17.440128,0.17955295609457714
2023-01-15 20:02:17.460076,0.16798716600131114
2023-01-15 20:02:17.480142,0.1530381692638925
2023-01-15 20:02:17.500071,0.1720677855060035
2023-01-15 20:02:17.520137,0.16051006149166203
2023-01-15 20:02:17.540107,0.16322840522536922
2023-01-15 20:03:07.584398,0.2006756633491607
2023-01-15 20:03:07.603053,0.17819162742339695
2023-01-15 20:03:07.620358,0.16594743844858642
2023-01-15 20:03:07.640537,0.187724557367839
2023-01-15 20:03:07.660063,0.14557148386968702
2023-01-15 20:03:07.680115,0.1822761317690727
2023-01-15 20:03:07.700012,0.1979478160914316
2023-01-15 20:03:07.720255,0.1890870960949217
2023-01-15 20:03:07.739975,0.1890870960949217
2023-01-15 20:03:07.759888,0.2498956920974781
2023-01-15 20:03:07.77991,0.12997612492254543
2023-01-15 20:03:07.799801,0.2006756633491607
2023-01-15 20:03:07.819784,0.2457854081025717
2023-01-15 20:03:07.840131,0.22730853776033932
2023-01-15 20:03:07.860047,0.17070740646255425
2023-01-15 20:03:07.880194,0.21979001600009837
2023-01-15 20:03:07.900092,0.17138757441312333
2023-01-15 20:03:07.920045,0.21227674988193876
2023-01-15 20:03:07.940085,0.21979001600009837
2023-01-15 20:03:07.960075,0.20476873389704023
2023-01-15 20:03:07.980213,0.21432530155360946
2023-01-15 20:03:08.000042,0.22457392140872046
2023-01-15 20:03:08.020037,0.20613343745478352
2023-01-15 20:03:08.040067,0.20340420371554543
2023-01-15 20:03:08.060071,0.217057311428925
2023-01-15 20:03:08.080081,0.19726596254427886
2023-01-15 20:03:08.10004,0.21979001600009837
2023-01-15 20:03:08.120045,0.16662730451786906
2023-01-15 20:03:08.140057,0.18704335286781285
2023-01-15 20:03:08.160035,0.15507544144400368
2023-01-15 20:03:08.180081,0.21022858871600358
2023-01-15 20:03:08.200027,0.17955295609457714
2023-01-15 20:03:08.220014,0.1727480397452997
2023-01-15 20:03:08.240053,0.14896478664853924
2023-01-15 20:03:08.260031,0.15711310101967813
2023-01-15 20:03:08.28012,0.20203984687726192
2023-01-15 20:03:08.300062,0.16866716142367352
2023-01-15 20:03:08.320033,0.16118958279979007
2023-01-15 20:03:08.340121,0.14150093905168643
2023-01-15 20:03:08.360033,0.14692867599249154
2023-01-15 20:03:08.380085,0.1822761317690727
2023-01-15 20:03:08.400041,0.14421446369373303
2023-01-15 20:03:08.420034,0.16526761548879507
2023-01-15 20:03:08.440085,0.19044980781883028
2023-01-15 20:03:08.460026,0.1543963076788044
2023-01-15 20:03:08.480327,0.13472013423024282
2023-01-15 20:03:08.500027,0.1856810735742072
2023-01-15 20:03:08.520076,0.16322840522536922
2023-01-15 20:03:08.540076,0.15915114810142364
2023-01-15 20:03:08.560074,0.14625005843569047
2023-01-15 20:03:08.580079,0.16594743844858642
2023-01-15 20:03:08.600018,0.16322840522536922
2023-01-15 20:03:08.620015,0.15032240878147599
2023-01-15 20:03:08.640131,0.16051006149166203
2023-01-15 20:03:08.660033,0.18431896719509067
2023-01-15 20:03:08.680102,0.15711310101967813
2023-01-15 20:02:17.580331,0.17070740646255425
2023-01-15 20:02:17.600668,0.15168020297568977
2023-01-15 20:02:17.620513,0.17955295609457714
2023-01-15 20:02:17.640288,0.17955295609457714
2023-01-15 20:02:17.660155,0.16390809888128582
2023-01-15 20:02:17.679867,0.1959023853418343
2023-01-15 20:02:17.699833,0.1184637068444242
2023-01-15 20:02:17.71997,0.15168020297568977
2023-01-15 20:02:17.73983,0.16798716600131114
2023-01-15 20:02:17.759712,0.16866716142367352
2023-01-15 20:02:17.779759,0.16254875466254637
2023-01-15 20:02:17.799661,0.187724557367839
2023-01-15 20:02:17.819657,0.19999363656610927
2023-01-15 20:02:17.839681,0.15915114810142364
2023-01-15 20:02:17.859737,0.19317575038893042
2023-01-15 20:02:17.87977,0.1537172169534645
2023-01-15 20:02:17.899697,0.1890870960949217
2023-01-15 20:02:17.91977,0.22730853776033932
2023-01-15 20:02:17.939705,0.16662730451786906
2023-01-15 20:02:17.959674,0.15847175601112184
2023-01-15 20:02:17.979724,0.20135773345150254
2023-01-15 20:02:17.99965,0.1822761317690727
2023-01-15 20:02:18.019643,0.18295703369754324
2023-01-15 20:02:18.039678,0.21500823890918905
2023-01-15 20:02:18.059658,0.16390809888128582
2023-01-15 20:02:18.079859,0.1754694882487593
2023-01-15 20:02:18.09966,0.20272200363056678
2023-01-15 20:02:18.119645,0.1564338381103479
2023-01-15 20:02:18.139688,0.17887227016524054
2023-01-15 20:02:18.159662,0.19658415229578782
2023-01-15 20:02:18.179731,0.10966844470633841
2023-01-15 20:02:18.199649,0.19181269257251396
2023-01-15 20:02:18.21964,0.2040864471363268
2023-01-15 20:02:18.239676,0.14625005843569047
2023-01-15 20:02:18.259651,0.19522066167829463
2023-01-15 20:02:18.279721,0.1645878356343947
2023-01-15 20:02:18.299646,0.11169747869551046
2023-01-15 20:02:18.319669,0.18363797883817798
2023-01-15 20:02:18.339665,0.1802336852155173
2023-01-15 20:02:18.359929,0.1856810735742072
2023-01-15 20:02:18.380107,0.174108677679562
2023-01-15 20:02:18.400015,0.16934719997193287
2023-01-15 20:02:18.419994,0.20272200363056678
2023-01-15 20:02:18.44003,0.14557148386968702
2023-01-15 20:02:18.460761,0.18295703369754324
2023-01-15 20:02:18.480021,0.1754694882487593
2023-01-15 20:02:18.500001,0.14489295229039612
2023-01-15 20:02:18.519993,0.18499999877239548
2023-01-15 20:02:18.540081,0.18295703369754324
2023-01-15 20:02:18.560137,0.1761499582817262
2023-01-15 20:02:18.580073,0.1734283371351172
2023-01-15 20:02:18.600003,0.16662730451786906
2023-01-15 20:02:18.619999,0.18431896719509067
2023-01-15 20:02:18.640054,0.1537172169534645
2023-01-15 20:02:18.660159,0.17819162742339695
2023-01-15 20:02:18.680147,0.16934719997193287
2023-01-15 20:02:18.700072,0.15100128436887894
2023-01-15 20:02:18.720063,0.1564338381103479
2023-01-15 20:02:18.740122,0.1863621916046411
2023-01-15 20:02:18.760109,0.14760733654417585
2023-01-15 20:02:18.780146,0.1979478160914316
2023-01-15 20:02:18.800089,0.17002728165019204
2023-01-15 20:02:18.820063,0.16866716142367352
2023-01-15 20:02:18.840104,0.19113122856489057
2023-01-15 20:02:18.860101,0.16798716600131114
2023-01-15 20:02:18.880134,0.16730721370074356
2023-01-15 20:02:18.900071,0.19453898130104574
2023-01-15 20:02:18.920059,0.174108677679562
2023-01-15 20:02:18.940118,0.18499999877239548
2023-01-15 20:02:18.960072,0.19044980781883028
2023-01-15 20:02:18.980196,0.17683047148574899
2023-01-15 20:02:19.000105,0.19726596254427886
2023-01-15 20:02:19.020139,0.14489295229039612
2023-01-15 20:02:19.040173,0.1734283371351172
2023-01-15 20:02:19.060078,0.2780247053616232
2023-01-15 20:02:19.080145,0.14625005843569047
2023-01-15 20:02:19.10007,0.26223596912822894
2023-01-15 20:02:19.120058,0.18840580510883612
2023-01-15 20:02:19.140114,0.23209579054022336
2023-01-15 20:02:19.16008,0.2457854081025717
2023-01-15 20:02:19.180137,0.20886336483120688
2023-01-15 20:02:19.200066,0.22730853776033932
2023-01-15 20:02:19.220079,0.2574352916686426
2023-01-15 20:02:19.240182,0.2382539627258074
2023-01-15 20:02:19.260091,0.2505808920679758
2023-01-15 20:02:19.280155,0.26360798443265165
2023-01-15 20:02:19.300073,0.22457392140872046
2023-01-15 20:02:19.320063,0.2677250793085484
2023-01-15 20:02:19.340106,0.2444156622245715
2023-01-15 20:02:19.360073,0.19113122856489057
2023-01-15 20:02:19.380145,0.21569121967084254
2023-01-15 20:02:19.400075,0.21022858871600358
2023-01-15 20:02:19.420064,0.26429405763458663
2023-01-15 20:02:19.440131,0.21842357686096975
2023-01-15 20:02:19.460086,0.1734283371351172
2023-01-15 20:02:19.480159,0.22047330072017177
2023-01-15 20:02:19.500146,0.17955295609457714
2023-01-15 20:02:19.520067,0.16594743844858642
2023-01-15 20:02:19.540097,0.16390809888128582
2023-01-15 20:02:19.560144,0.19113122856489057
2023-01-15 20:02:19.580142,0.1720677855060035
2023-01-15 20:02:19.600099,0.14489295229039612
2023-01-15 20:02:19.620066,0.16186914718871923
2023-01-15 20:02:19.64012,0.1754694882487593
2023-01-15 20:02:19.660106,0.1564338381103479
2023-01-15 20:02:19.680197,0.19317575038893042
2023-01-15 20:02:19.700071,0.14964357620939217
2023-01-15 20:02:19.720226,0.1822761317690727
2023-01-15 20:02:19.740131,0.18295703369754324
2023-01-15 20:02:19.760089,0.1435360180756139
2023-01-15 20:02:19.780142,0.20340420371554543
2023-01-15 20:02:19.800165,0.13675392481620743
2023-01-15 20:02:19.820216,0.19453898130104574
2023-01-15 20:02:19.840147,0.18499999877239548
2023-01-15 20:02:19.860124,0.15168020297568977
2023-01-15 20:02:19.880153,0.1822761317690727
2023-01-15 20:02:19.900101,0.18431896719509067
2023-01-15 20:02:19.920113,0.15983058326023855
2023-01-15 20:02:19.940184,0.19726596254427886
2023-01-15 20:02:19.960121,0.17002728165019204
2023-01-15 20:02:19.980146,0.20613343745478352
2023-01-15 20:02:20.000204,0.23209579054022336
2023-01-15 20:02:20.020155,0.17478906138274036
2023-01-15 20:02:20.040142,0.20613343745478352
2023-01-15 20:02:20.060075,0.23688517529502975
2023-01-15 20:02:20.08013,0.21091126572201527
2023-01-15 20:02:20.100114,0.23277985780005073
2023-01-15 20:02:20.120062,0.2553785135098436
2023-01-15 20:02:20.140157,0.1979478160914316
2023-01-15 20:02:20.160071,0.21295955704412137
2023-01-15 20:02:20.180143,0.2232068740338463
2023-01-15 20:02:20.200097,0.22525751029017263
2023-01-15 20:02:20.220232,0.2040864471363268
2023-01-15 20:02:20.240117,0.21500823890918905
2023-01-15 20:02:20.260238,0.1979478160914316
2023-01-15 20:02:20.28012,0.1979478160914316
2023-01-15 20:02:20.300067,0.1863621916046411
2023-01-15 20:02:20.320066,0.16798716600131114
2023-01-15 20:02:20.340186,0.1979478160914316
2023-01-15 20:02:20.36014,0.16051006149166203
2023-01-15 20:02:20.380142,0.2437308546643992
2023-01-15 20:02:20.400109,0.16662730451786906
2023-01-15 20:02:20.420106,0.1863621916046411
2023-01-15 20:02:20.440109,0.18431896719509067
2023-01-15 20:02:20.460066,0.16254875466254637
2023-01-15 20:02:20.480143,0.18363797883817798
2023-01-15 20:02:20.500074,0.16594743844858642
2023-01-15 20:02:20.520099,0.14489295229039612
2023-01-15 20:02:20.540106,0.1863621916046411
2023-01-15 20:02:20.56008,0.19726596254427886
2023-01-15 20:02:20.58014,0.1564338381103479
2023-01-15 20:02:20.600093,0.17138757441312333
2023-01-15 20:02:20.620095,0.19317575038893042
2023-01-15 20:02:20.640115,0.1543963076788044
2023-01-15 20:02:20.660107,0.16254875466254637
2023-01-15 20:02:20.680112,0.16798716600131114
2023-01-15 20:02:20.700064,0.14285761543195497
2023-01-15 20:02:20.720097,0.18704335286781285
2023-01-15 20:02:20.740122,0.16934719997193287
2023-01-15 20:02:20.760136,0.16390809888128582
2023-01-15 20:02:20.780131,0.19862971294137066
2023-01-15 20:02:20.80011,0.1530381692638925
2023-01-15 20:02:20.820127,0.16186914718871923
2023-01-15 20:02:20.840122,0.19044980781883028
2023-01-15 20:02:20.860155,0.16866716142367352
2023-01-15 20:02:20.880161,0.17002728165019204
2023-01-15 20:02:20.900083,0.19044980781883028
2023-01-15 20:02:20.920101,0.16118958279979007
2023-01-15 20:02:20.940127,0.17955295609457714
2023-01-15 20:02:20.960069,0.16730721370074356
2023-01-15 20:02:20.980134,0.15168020297568977
2023-01-15 20:02:21.000063,0.1754694882487593
2023-01-15 20:02:21.020172,0.16594743844858642
2023-01-15 20:02:21.040125,0.14692867599249154
2023-01-15 20:02:21.060102,0.17751102786493625
2023-01-15 20:02:21.080123,0.16118958279979007
2023-01-15 20:02:21.100068,0.16390809888128582
2023-01-15 20:02:21.120092,0.19999363656610927
2023-01-15 20:02:21.14011,0.15915114810142364
2023-01-15 20:02:21.160068,0.1761499582817262
2023-01-15 20:02:21.180133,0.15779240698523814
2023-01-15 20:02:21.2001,0.17819162742339695
2023-01-15 20:02:21.220065,0.17478906138274036
2023-01-15 20:02:21.240244,0.17955295609457714
2023-01-15 20:02:21.260084,0.17002728165019204
2023-01-15 20:02:21.280172,0.1530381692638925
2023-01-15 20:02:21.300068,0.15235916460599774
2023-01-15 20:02:21.320103,0.1856810735742072
2023-01-15 20:02:21.340124,0.15711310101967813
2023-01-15 20:02:21.360059,0.16934719997193287
2023-01-15 20:02:21.380137,0.17955295609457714
2023-01-15 20:02:21.400083,0.14828604009482954
2023-01-15 20:02:21.420056,0.16866716142367352
2023-01-15 20:02:21.44012,0.19726596254427886
2023-01-15 20:02:21.460065,0.16934719997193287
2023-01-15 20:02:21.480116,0.1856810735742072
2023-01-15 20:02:21.500062,0.17683047148574899
2023-01-15 20:02:21.520149,0.14896478664853924
2023-01-15 20:02:21.540127,0.16934719997193287
2023-01-15 20:02:21.560074,0.20340420371554543
2023-01-15 20:02:21.580144,0.15507544144400368
2023-01-15 20:02:21.600063,0.18091445753217217
2023-01-15 20:02:21.62006,0.16118958279979007
2023-01-15 20:02:21.640119,0.1822761317690727
2023-01-15 20:02:21.6601,0.17819162742339695
2023-01-15 20:02:21.680161,0.16186914718871923
2023-01-15 20:02:21.700067,0.18431896719509067
2023-01-15 20:02:21.720062,0.19317575038893042
2023-01-15 20:02:21.740165,0.1435360180756139
2023-01-15 20:02:21.760072,0.187724557367839
2023-01-15 20:02:21.78016,0.16390809888128582
2023-01-15 20:02:21.80006,0.18295703369754324
2023-01-15 20:02:21.820076,0.19931165309822133
2023-01-15 20:02:21.840153,0.17751102786493625
2023-01-15 20:02:21.860075,0.1537172169534645
2023-01-15 20:02:21.880128,0.15235916460599774
2023-01-15 20:02:21.900062,0.16730721370074356
2023-01-15 20:02:21.920069,0.19999363656610927
2023-01-15 20:02:21.940149,0.1890870960949217
2023-01-15 20:02:21.960068,0.1645878356343947
2023-01-15 20:02:21.980173,0.15032240878147599
2023-01-15 20:02:22.000062,0.16662730451786906
2023-01-15 20:02:22.020063,0.16866716142367352
2023-01-15 20:02:22.04015,0.15711310101967813
2023-01-15 20:02:22.060068,0.16526761548879507
2023-01-15 20:02:22.080175,0.15100128436887894
2023-01-15 20:02:22.100078,0.18499999877239548
2023-01-15 20:02:22.120054,0.1959023853418343
2023-01-15 20:02:22.14016,0.16866716142367352
2023-01-15 20:02:22.160066,0.16390809888128582
2023-01-15 20:02:22.180146,0.15983058326023855
2023-01-15 20:02:22.200092,0.16118958279979007
2023-01-15 20:02:22.220065,0.18295703369754324
2023-01-15 20:02:22.24015,0.16118958279979007
2023-01-15 20:02:22.260064,0.1802336852155173
2023-01-15 20:02:22.280136,0.1537172169534645
2023-01-15 20:02:22.300069,0.19249419984582047
2023-01-15 20:02:22.320054,0.18704335286781285
2023-01-15 20:02:22.340151,0.17751102786493625
2023-01-15 20:02:22.36007,0.18431896719509067
2023-01-15 20:02:22.380137,0.15100128436887894
2023-01-15 20:02:22.400074,0.1822761317690727
2023-01-15 20:02:22.420061,0.2095459550871121
2023-01-15 20:02:22.440148,0.18091445753217217
2023-01-15 20:02:22.460067,0.18499999877239548
2023-01-15 20:02:22.480189,0.1727480397452997
2023-01-15 20:02:22.500066,0.18295703369754324
2023-01-15 20:02:22.520053,0.20203984687726192
2023-01-15 20:02:22.540156,0.16051006149166203
2023-01-15 20:02:22.560061,0.17138757441312333
2023-01-15 20:02:22.580139,0.174108677679562
2023-01-15 20:02:22.600057,0.1822761317690727
2023-01-15 20:02:22.620101,0.15235916460599774
2023-01-15 20:02:22.640161,0.14760733654417585
2023-01-15 20:02:22.660125,0.15575461825315406
2023-01-15 20:02:22.680128,0.17478906138274036
2023-01-15 20:02:22.700067,0.17751102786493625
2023-01-15 20:02:22.720059,0.15847175601112184
2023-01-15 20:02:22.740154,0.16118958279979007
2023-01-15 20:02:22.760059,0.1645878356343947
2023-01-15 20:02:22.78014,0.17955295609457714
2023-01-15 20:02:22.800057,0.14692867599249154
2023-01-15 20:02:22.82006,0.16322840522536922
2023-01-15 20:02:22.840196,0.16186914718871923
2023-01-15 20:02:22.860117,0.14557148386968702
2023-01-15 20:02:22.880164,0.19181269257251396
2023-01-15 20:02:22.900076,0.174108677679562
2023-01-15 20:02:22.920244,0.15507544144400368
2023-01-15 20:02:22.940224,0.2006756633491607
2023-01-15 20:02:22.96009,0.1754694882487593
2023-01-15 20:02:22.980151,0.16254875466254637
2023-01-15 20:02:23.00006,0.16866716142367352
2023-01-15 20:02:23.020131,0.14896478664853924
2023-01-15 20:02:23.040119,0.17751102786493625
2023-01-15 20:02:23.060065,0.14760733654417585
2023-01-15 20:02:23.08012,0.17751102786493625
2023-01-15 20:02:23.100057,0.1863621916046411
2023-01-15 20:02:23.120094,0.17478906138274036
2023-01-15 20:02:23.140108,0.19862971294137066
2023-01-15 20:02:23.160074,0.1815952730486532
2023-01-15 20:02:23.180127,0.17819162742339695
2023-01-15 20:02:23.200061,0.17819162742339695
2023-01-15 20:02:23.220053,0.1543963076788044
2023-01-15 20:02:23.24011,0.17819162742339695
2023-01-15 20:02:23.260136,0.17478906138274036
2023-01-15 20:02:23.280123,0.15983058326023855
2023-01-15 20:02:23.300066,0.1727480397452997
2023-01-15 20:02:23.320063,0.19999363656610927
2023-01-15 20:02:23.340132,0.17955295609457714
2023-01-15 20:02:23.360068,0.20203984687726192
2023-01-15 20:02:23.380136,0.15575461825315406
2023-01-15 20:02:23.40012,0.19044980781883028
2023-01-15 20:02:23.420059,0.17955295609457714
2023-01-15 20:02:23.440112,0.1734283371351172
2023-01-15 20:02:23.460142,0.15575461825315406
2023-01-15 20:02:23.480145,0.18499999877239548
2023-01-15 20:02:23.500065,0.1645878356343947
2023-01-15 20:02:23.520061,0.17002728165019204
2023-01-15 20:02:23.540126,0.16186914718871923
2023-01-15 20:02:23.560173,0.1754694882487593
2023-01-15 20:02:23.580147,0.17751102786493625
2023-01-15 20:02:23.600068,0.16866716142367352
2023-01-15 20:02:23.620057,0.15235916460599774
2023-01-15 20:02:23.640114,0.16798716600131114
2023-01-15 20:02:23.660126,0.18499999877239548
2023-01-15 20:02:23.680129,0.174108677679562
2023-01-15 20:02:23.70006,0.1979478160914316
2023-01-15 20:02:23.720099,0.17070740646255425
2023-01-15 20:02:23.740128,0.187724557367839
2023-01-15 20:02:23.760157,0.16186914718871923
2023-01-15 20:02:23.780131,0.17683047148574899
2023-01-15 20:02:23.80007,0.1761499582817262
2023-01-15 20:02:23.820058,0.18091445753217217
2023-01-15 20:02:23.840113,0.1645878356343947
2023-01-15 20:02:23.860088,0.1734283371351172
2023-01-15 20:02:23.880139,0.1727480397452997
2023-01-15 20:02:23.900336,0.1734283371351172
2023-01-15 20:02:23.920231,0.16526761548879507
2023-01-15 20:02:23.940133,0.1754694882487593
2023-01-15 20:02:23.960073,0.2095459550871121
2023-01-15 20:02:23.980156,0.15507544144400368
2023-01-15 20:02:24.000079,0.15847175601112184
2023-01-15 20:02:24.020052,0.187724557367839
2023-01-15 20:02:24.04016,0.16254875466254637
2023-01-15 20:02:24.060054,0.19044980781883028
2023-01-15 20:02:24.080154,0.15032240878147599
2023-01-15 20:02:24.100069,0.16390809888128582
2023-01-15 20:02:24.120054,0.1727480397452997
2023-01-15 20:02:24.140108,0.16390809888128582
2023-01-15 20:02:24.160064,0.20476873389704023
2023-01-15 20:02:24.180144,0.14828604009482954
2023-01-15 20:02:24.200063,0.16934719997193287
2023-01-15 20:02:24.220059,0.16730721370074356
2023-01-15 20:02:24.24011,0.16662730451786906
2023-01-15 20:02:24.260084,0.19999363656610927
2023-01-15 20:02:24.280125,0.174108677679562
2023-01-15 20:02:24.30006,0.1802336852155173
2023-01-15 20:02:24.320076,0.17138757441312333
2023-01-15 20:02:24.340107,0.1822761317690727
2023-01-15 20:02:24.360055,0.18363797883817798
2023-01-15 20:02:24.380139,0.18976843033021362
2023-01-15 20:02:24.400137,0.19726596254427886
2023-01-15 20:02:24.420064,0.16051006149166203
2023-01-15 20:02:24.440117,0.19385734420596504
2023-01-15 20:02:24.460059,0.1890870960949217
2023-01-15 20:02:24.480128,0.16866716142367352
2023-01-15 20:02:24.500101,0.1734283371351172
2023-01-15 20:02:24.520056,0.15915114810142364
2023-01-15 20:02:24.540106,0.1979478160914316
2023-01-15 20:02:24.560203,0.1754694882487593
2023-01-15 20:02:24.580202,0.16662730451786906
2023-01-15 20:02:24.600097,0.1979478160914316
2023-01-15 20:02:24.620074,0.16390809888128582
2023-01-15 20:02:24.640134,0.17070740646255425
2023-01-15 20:02:24.660088,0.17955295609457714
2023-01-15 20:02:24.680127,0.19249419984582047
2023-01-15 20:02:24.700064,0.2095459550871121
2023-01-15 20:02:24.720698,0.18363797883817798
2023-01-15 20:02:24.740135,0.20613343745478352
2023-01-15 20:02:24.760092,0.15915114810142364
2023-01-15 20:02:24.780144,0.19181269257251396
2023-01-15 20:02:24.800067,0.174108677679562
2023-01-15 20:02:24.820323,0.18431896719509067
2023-01-15 20:02:24.840292,0.1979478160914316
2023-01-15 20:02:24.860094,0.18431896719509067
2023-01-15 20:02:24.880152,0.19317575038893042
2023-01-15 20:02:24.900073,0.17478906138274036
2023-01-15 20:02:24.920056,0.16594743844858642
2023-01-15 20:02:24.940126,0.18499999877239548
2023-01-15 20:02:24.960138,0.18295703369754324
2023-01-15 20:02:24.980142,0.1645878356343947
2023-01-15 20:02:25.000073,0.19317575038893042
2023-01-15 20:02:25.020135,0.1754694882487593
2023-01-15 20:02:25.040138,0.1856810735742072
2023-01-15 20:02:25.060087,0.17819162742339695
2023-01-15 20:02:25.080143,0.18704335286781285
2023-01-15 20:02:25.100064,0.19453898130104574
2023-01-15 20:02:25.120054,0.17138757441312333
2023-01-15 20:02:25.140103,0.18431896719509067
2023-01-15 20:02:25.16008,0.15915114810142364
2023-01-15 20:02:25.180203,0.1802336852155173
2023-01-15 20:02:25.20007,0.18976843033021362
2023-01-15 20:02:25.220077,0.14896478664853924
2023-01-15 20:02:25.24012,0.16934719997193287
2023-01-15 20:02:25.260062,0.17751102786493625
2023-01-15 20:02:25.280157,0.187724557367839
2023-01-15 20:02:25.30009,0.19113122856489057
2023-01-15 20:02:25.320082,0.1754694882487593
2023-01-15 20:02:25.340134,0.18704335286781285
2023-01-15 20:02:25.360072,0.15915114810142364
2023-01-15 20:02:25.380151,0.17751102786493625
2023-01-15 20:02:25.400089,0.17683047148574899
2023-01-15 20:02:25.420114,0.1530381692638925
2023-01-15 20:02:25.440131,0.19862971294137066
2023-01-15 20:02:25.460088,0.16526761548879507
2023-01-15 20:02:25.480136,0.16390809888128582
2023-01-15 20:02:25.500075,0.19181269257251396
2023-01-15 20:02:25.52012,0.16118958279979007
2023-01-15 20:02:25.540111,0.19044980781883028
2023-01-15 20:02:25.560062,0.18295703369754324
2023-01-15 20:02:25.58015,0.19726596254427886
2023-01-15 20:02:25.600062,0.20203984687726192
2023-01-15 20:02:25.62026,0.1720677855060035
2023-01-15 20:02:25.640178,0.18976843033021362
2023-01-15 20:02:25.660109,0.17751102786493625
2023-01-15 20:02:25.680193,0.17138757441312333
2023-01-15 20:02:25.700122,0.1727480397452997
2023-01-15 20:02:25.722266,0.1761499582817262
2023-01-15 20:02:25.740115,0.20272200363056678
2023-01-15 20:02:25.76015,0.15235916460599774
2023-01-15 20:02:25.779926,0.19181269257251396
2023-01-15 20:02:25.799865,0.213642407599966
2023-01-15 20:02:25.819855,0.15915114810142364
2023-01-15 20:02:25.840051,0.18091445753217217
2023-01-15 20:02:25.85999,0.13878810180505383
2023-01-15 20:02:25.880013,0.19317575038893042
2023-01-15 20:02:25.899878,0.2040864471363268
2023-01-15 20:02:25.919852,0.14421446369373303
2023-01-15 20:02:25.939878,0.17751102786493625
2023-01-15 20:02:25.959847,0.20340420371554543
2023-01-15 20:02:25.979895,0.17070740646255425
2023-01-15 20:02:25.999804,0.187724557367839
2023-01-15 20:02:26.019788,0.21295955704412137
2023-01-15 20:02:26.039821,0.16662730451786906
2023-01-15 20:02:26.059785,0.18499999877239548
2023-01-15 20:02:26.079991,0.14692867599249154
2023-01-15 20:02:26.099856,0.19249419984582047
2023-01-15 20:02:26.119856,0.21842357686096975
2023-01-15 20:02:26.139896,0.16730721370074356
2023-01-15 20:02:26.159847,0.17887227016524054
2023-01-15 20:02:26.179891,0.18704335286781285
2023-01-15 20:02:26.199795,0.13472013423024282
2023-01-15 20:02:26.219781,0.19453898130104574
2023-01-15 20:02:26.239813,0.187724557367839
2023-01-15 20:02:26.259783,0.1734283371351172
2023-01-15 20:02:26.279933,0.20135773345150254
2023-01-15 20:02:26.299883,0.1543963076788044
2023-01-15 20:02:26.319855,0.19113122856489057
2023-01-15 20:02:26.339911,0.2095459550871121
2023-01-15 20:02:26.35984,0.16662730451786906
2023-01-15 20:02:26.37993,0.213642407599966
2023-01-15 20:02:26.399807,0.1890870960949217
2023-01-15 20:02:26.41978,0.133364488453501
2023-01-15 20:02:26.439812,0.17955295609457714
2023-01-15 20:02:26.459777,0.21569121967084254
2023-01-15 20:02:26.479927,0.1959023853418343
2023-01-15 20:02:26.499862,0.22525751029017263
2023-01-15 20:02:26.519842,0.14421446369373303
2023-01-15 20:02:26.539912,0.1979478160914316
2023-01-15 20:02:26.559875,0.2115939861092819
2023-01-15 20:02:26.579889,0.18363797883817798
2023-01-15 20:02:26.599868,0.20818081794415416
2023-01-15 20:02:26.619817,0.2115939861092819
2023-01-15 20:02:26.639824,0.18976843033021362
2023-01-15 20:02:26.659805,0.1863621916046411
2023-01-15 20:02:26.679936,0.14285761543195497
2023-01-15 20:02:26.699853,0.20476873389704023
2023-01-15 20:02:26.719843,0.19044980781883028
2023-01-15 20:02:26.739863,0.18499999877239548
2023-01-15 20:02:26.759838,0.17819162742339695
2023-01-15 20:02:26.779883,0.18704335286781285
2023-01-15 20:02:26.79984,0.17887227016524054
2023-01-15 20:02:26.819811,0.1890870960949217
2023-01-15 20:02:26.839861,0.16118958279979007
2023-01-15 20:02:26.859781,0.17138757441312333
2023-01-15 20:02:26.87994,0.29590073825876856
2023-01-15 20:02:26.899847,0.15575461825315406
2023-01-15 20:02:26.919839,0.2780247053616232
2023-01-15 20:02:26.939867,0.21842357686096975
2023-01-15 20:02:26.959839,0.26360798443265165
2023-01-15 20:02:26.97988,0.2745904026493814
2023-01-15 20:02:26.999792,0.2814601027992178
2023-01-15 20:02:27.01989,0.2444156622245715
2023-01-15 20:02:27.039818,0.2828345684146114
2023-01-15 20:02:27.059783,0.28970952626231966
2023-01-15 20:02:27.079927,0.2505808920679758
2023-01-15 20:02:27.09988,0.2835218669477138
2023-01-15 20:02:27.119892,0.23756954723896004
2023-01-15 20:02:27.139874,0.2457854081025717
2023-01-15 20:02:27.159842,0.19249419984582047
2023-01-15 20:02:27.179892,0.25126613566043987
2023-01-15 20:02:27.199792,0.1863621916046411
2023-01-15 20:02:27.219784,0.2745904026493814
2023-01-15 20:02:27.239809,0.19658415229578782
2023-01-15 20:02:27.259875,0.21227674988193876
2023-01-15 20:02:27.279942,0.1979478160914316
2023-01-15 20:02:27.299892,0.18704335286781285
2023-01-15 20:02:27.319844,0.2006756633491607
2023-01-15 20:02:27.339864,0.18363797883817798
2023-01-15 20:02:27.35984,0.18840580510883612
2023-01-15 20:02:27.379883,0.17070740646255425
2023-01-15 20:02:27.399806,0.19931165309822133
2023-01-15 20:02:27.41978,0.19862971294137066
2023-01-15 20:02:27.439806,0.18976843033021362
2023-01-15 20:02:27.45978,0.18091445753217217
2023-01-15 20:02:27.479966,0.20272200363056678
2023-01-15 20:02:27.499972,0.18091445753217217
2023-01-15 20:02:27.520108,0.16662730451786906
2023-01-15 20:02:27.540163,0.1959023853418343
2023-01-15 20:03:08.700029,0.1720677855060035
2023-01-15 20:03:08.72005,0.14760733654417585
2023-01-15 20:03:08.740095,0.16934719997193287
2023-01-15 20:03:08.760054,0.19453898130104574
2023-01-15 20:03:08.780075,0.1727480397452997
2023-01-15 20:03:08.80006,0.18431896719509067
2023-01-15 20:03:08.820012,0.16118958279979007
2023-01-15 20:03:08.840033,0.15032240878147599
2023-01-15 20:03:08.860024,0.14760733654417585
2023-01-15 20:03:08.880079,0.16526761548879507
2023-01-15 20:03:08.900074,0.15507544144400368
2023-01-15 20:03:08.920033,0.16390809888128582
2023-01-15 20:03:08.940045,0.14625005843569047
2023-01-15 20:03:08.96003,0.13878810180505383
2023-01-15 20:03:08.980121,0.1645878356343947
2023-01-15 20:03:09.000019,0.16051006149166203
2023-01-15 20:03:09.020128,0.15779240698523814
2023-01-15 20:03:09.040048,0.22389037599132675
2023-01-15 20:03:09.060039,0.1259115041062637
2023-01-15 20:03:09.080071,0.1645878356343947
2023-01-15 20:03:09.100048,0.17819162742339695
2023-01-15 20:03:09.120034,0.14760733654417585
2023-01-15 20:03:09.140066,0.15032240878147599
2023-01-15 20:03:09.160037,0.15711310101967813
2023-01-15 20:03:09.180081,0.16322840522536922
2023-01-15 20:03:09.200042,0.15779240698523814
2023-01-15 20:03:09.22002,0.12794362155133784
2023-01-15 20:03:09.240033,0.1537172169534645
2023-01-15 20:03:09.260071,0.14421446369373303
2023-01-15 20:03:09.280069,0.13268672993707142
2023-01-15 20:03:09.300013,0.15235916460599774
2023-01-15 20:03:09.320028,0.15847175601112184
2023-01-15 20:03:09.340035,0.14625005843569047
2023-01-15 20:03:09.360024,0.1564338381103479
2023-01-15 20:03:09.380074,0.15507544144400368
2023-01-15 20:03:09.400016,0.15983058326023855
2023-01-15 20:03:09.420023,0.17478906138274036
2023-01-15 20:03:09.440067,0.15779240698523814
2023-01-15 20:03:09.460026,0.1537172169534645
2023-01-15 20:03:09.480075,0.16254875466254637
2023-01-15 20:03:09.500172,0.1734283371351172
2023-01-15 20:03:09.520084,0.18363797883817798
2023-01-15 20:03:09.540054,0.14625005843569047
2023-01-15 20:03:09.560035,0.15983058326023855
2023-01-15 20:03:09.580079,0.14489295229039612
2023-01-15 20:03:09.600019,0.14082266530691223
2023-01-15 20:03:09.620013,0.14692867599249154
2023-01-15 20:03:09.640087,0.13946624668767665
2023-01-15 20:03:09.660053,0.1727480397452997
2023-01-15 20:03:09.680104,0.1564338381103479
2023-01-15 20:03:09.700215,0.1537172169534645
2023-01-15 20:03:09.720049,0.1564338381103479
2023-01-15 20:03:09.740062,0.15032240878147599
2023-01-15 20:03:09.760174,0.1537172169534645
2023-01-15 20:03:09.780084,0.1734283371351172
2023-01-15 20:03:09.800024,0.15168020297568977
2023-01-15 20:02:27.584897,0.15983058326023855
2023-01-15 20:02:27.602479,0.17819162742339695
2023-01-15 20:02:27.621079,0.15507544144400368
2023-01-15 20:02:27.640335,0.1761499582817262
2023-01-15 20:02:27.659989,0.21432530155360946
2023-01-15 20:02:27.679967,0.1979478160914316
2023-01-15 20:02:27.699878,0.18431896719509067
2023-01-15 20:02:27.719814,0.22662481846183558
2023-01-15 20:02:27.739746,0.2068158542600748
2023-01-15 20:02:27.759911,0.2040864471363268
2023-01-15 20:02:27.779866,0.26292195493192433
2023-01-15 20:02:27.799821,0.2334639685737197
2023-01-15 20:02:27.819672,0.2574352916686426
2023-01-15 20:02:27.839714,0.27527717563891924
2023-01-15 20:02:27.859682,0.2526367537279315
2023-01-15 20:02:27.879763,0.25400754633328565
2023-01-15 20:02:27.899679,0.25812097170997844
2023-01-15 20:02:27.919877,0.2677250793085484
2023-01-15 20:02:27.939862,0.25126613566043987
2023-01-15 20:02:27.959725,0.21295955704412137
2023-01-15 20:02:27.979768,0.2526367537279315
2023-01-15 20:02:27.999676,0.20613343745478352
2023-01-15 20:02:28.019666,0.18091445753217217
2023-01-15 20:02:28.039694,0.21842357686096975
2023-01-15 20:02:28.059669,0.133364488453501
2023-01-15 20:02:28.079743,0.19931165309822133
2023-01-15 20:02:28.099674,0.21569121967084254
2023-01-15 20:02:28.119657,0.20818081794415416
2023-01-15 20:02:28.139709,0.19385734420596504
2023-01-15 20:02:28.159679,0.1959023853418343
2023-01-15 20:02:28.179761,0.21637424384270823
2023-01-15 20:02:28.199667,0.20340420371554543
2023-01-15 20:02:28.219663,0.22935995655630886
2023-01-15 20:02:28.239767,0.14150093905168643
2023-01-15 20:02:28.259698,0.20613343745478352
2023-01-15 20:02:28.27976,0.15915114810142364
2023-01-15 20:02:28.299708,0.14150093905168643
2023-01-15 20:02:28.31967,0.22047330072017177
2023-01-15 20:02:28.339699,0.17887227016524054
2023-01-15 20:02:28.359658,0.1537172169534645
2023-01-15 20:02:28.379988,0.22730853776033932
2023-01-15 20:02:28.399963,0.17683047148574899
2023-01-15 20:02:28.419886,0.20818081794415416
2023-01-15 20:02:28.439912,0.1979478160914316
2023-01-15 20:02:28.459882,0.16934719997193287
2023-01-15 20:02:28.48019,0.19181269257251396
2023-01-15 20:02:28.500114,0.16866716142367352
2023-01-15 20:02:28.520063,0.19931165309822133
2023-01-15 20:02:28.540092,0.20749831442182104
2023-01-15 20:02:28.560056,0.18295703369754324
2023-01-15 20:02:28.580262,0.22799230053948746
2023-01-15 20:02:28.600157,0.19522066167829463
2023-01-15 20:02:28.620103,0.19249419984582047
2023-01-15 20:02:28.640092,0.2115939861092819
2023-01-15 20:02:28.660193,0.19113122856489057
2023-01-15 20:02:28.68018,0.1802336852155173
2023-01-15 20:02:28.700065,0.1979478160914316
2023-01-15 20:02:28.720055,0.22457392140872046
2023-01-15 20:02:28.740098,0.18363797883817798
2023-01-15 20:02:28.760082,0.21569121967084254
2023-01-15 20:02:28.780173,0.20886336483120688
2023-01-15 20:02:28.800064,0.2040864471363268
2023-01-15 20:02:28.820052,0.22730853776033932
2023-01-15 20:02:28.840089,0.17819162742339695
2023-01-15 20:02:28.86017,0.213642407599966
2023-01-15 20:02:28.880167,0.18091445753217217
2023-01-15 20:02:28.90015,0.20613343745478352
2023-01-15 20:02:28.92006,0.21979001600009837
2023-01-15 20:02:28.940095,0.19113122856489057
2023-01-15 20:02:28.960059,0.20613343745478352
2023-01-15 20:02:28.980162,0.20476873389704023
2023-01-15 20:02:29.000064,0.18976843033021362
2023-01-15 20:02:29.020122,0.2068158542600748
2023-01-15 20:02:29.040095,0.19453898130104574
2023-01-15 20:02:29.060061,0.18840580510883612
2023-01-15 20:02:29.08016,0.20818081794415416
2023-01-15 20:02:29.100065,0.20272200363056678
2023-01-15 20:02:29.120057,0.1863621916046411
2023-01-15 20:02:29.14009,0.20272200363056678
2023-01-15 20:02:29.160052,0.213642407599966
2023-01-15 20:02:29.180116,0.1822761317690727
2023-01-15 20:02:29.200069,0.20749831442182104
2023-01-15 20:02:29.220051,0.2095459550871121
2023-01-15 20:02:29.24008,0.20272200363056678
2023-01-15 20:02:29.260052,0.23004384980227915
2023-01-15 20:02:29.280114,0.19658415229578782
2023-01-15 20:02:29.300121,0.20272200363056678
2023-01-15 20:02:29.320066,0.20272200363056678
2023-01-15 20:02:29.340076,0.2068158542600748
2023-01-15 20:02:29.360095,0.1754694882487593
2023-01-15 20:02:29.380103,0.2225234155321344
2023-01-15 20:02:29.400105,0.20476873389704023
2023-01-15 20:02:29.420053,0.18704335286781285
2023-01-15 20:02:29.440077,0.19453898130104574
2023-01-15 20:02:29.460058,0.19726596254427886
2023-01-15 20:02:29.480111,0.18840580510883612
2023-01-15 20:02:29.500129,0.18431896719509067
2023-01-15 20:02:29.520188,0.20886336483120688
2023-01-15 20:02:29.540139,0.22115662887944043
2023-01-15 20:02:29.560061,0.18976843033021362
2023-01-15 20:02:29.580207,0.22799230053948746
2023-01-15 20:02:29.600183,0.1959023853418343
2023-01-15 20:02:29.620067,0.19522066167829463
2023-01-15 20:02:29.640092,0.22935995655630886
2023-01-15 20:02:29.660104,0.1822761317690727
2023-01-15 20:02:29.680137,0.22457392140872046
2023-01-15 20:02:29.700287,0.19113122856489057
2023-01-15 20:02:29.720078,0.19113122856489057
2023-01-15 20:02:29.740205,0.17683047148574899
2023-01-15 20:02:29.76009,0.1754694882487593
2023-01-15 20:02:29.780137,0.23756954723896004
2023-01-15 20:02:29.800064,0.20613343745478352
2023-01-15 20:02:29.820334,0.20886336483120688
2023-01-15 20:02:29.840144,0.18363797883817798
2023-01-15 20:02:29.860068,0.20545106400181562
2023-01-15 20:02:29.880143,0.21637424384270823
2023-01-15 20:02:29.90008,0.19658415229578782
2023-01-15 20:02:29.920059,0.20340420371554543
2023-01-15 20:02:29.940092,0.2068158542600748
2023-01-15 20:02:29.960048,0.22662481846183558
2023-01-15 20:02:29.980116,0.17683047148574899
2023-01-15 20:02:30.000116,0.19453898130104574
2023-01-15 20:02:30.020059,0.221840000482047
2023-01-15 20:02:30.04009,0.2095459550871121
2023-01-15 20:02:30.060058,0.23620084688986123
2023-01-15 20:02:30.08015,0.217057311428925
2023-01-15 20:02:30.100117,0.22935995655630886
2023-01-15 20:02:30.120062,0.19385734420596504
2023-01-15 20:02:30.140099,0.2382539627258074
2023-01-15 20:02:30.160054,0.23004384980227915
2023-01-15 20:02:30.180116,0.23004384980227915
2023-01-15 20:02:30.200062,0.21569121967084254
2023-01-15 20:02:30.220107,0.1822761317690727
2023-01-15 20:02:30.240128,0.23620084688986123
2023-01-15 20:02:30.26023,0.18704335286781285
2023-01-15 20:02:30.280151,0.23551656201929977
2023-01-15 20:02:30.300075,0.18431896719509067
2023-01-15 20:02:30.320096,0.23688517529502975
2023-01-15 20:02:30.340094,0.23483232067919144
2023-01-15 20:02:30.360056,0.20886336483120688
2023-01-15 20:02:30.380115,0.21569121967084254
2023-01-15 20:02:30.400076,0.19113122856489057
2023-01-15 20:02:30.420148,0.2334639685737197
2023-01-15 20:02:30.440094,0.21569121967084254
2023-01-15 20:02:30.460096,0.22730853776033932
2023-01-15 20:02:30.480112,0.2115939861092819
2023-01-15 20:02:30.500062,0.20613343745478352
2023-01-15 20:02:30.520091,0.22730853776033932
2023-01-15 20:02:30.540089,0.21091126572201527
2023-01-15 20:02:30.560053,0.22662481846183558
2023-01-15 20:02:30.580187,0.1543963076788044
2023-01-15 20:02:30.600159,0.22730853776033932
2023-01-15 20:02:30.620103,0.2040864471363268
2023-01-15 20:02:30.64009,0.22594114263982892
2023-01-15 20:02:30.660299,0.20135773345150254
2023-01-15 20:02:30.680248,0.23072778654548828
2023-01-15 20:02:30.70011,0.19453898130104574
2023-01-15 20:02:30.720057,0.23004384980227915
2023-01-15 20:02:30.740129,0.20272200363056678
2023-01-15 20:02:30.760055,0.21091126572201527
2023-01-15 20:02:30.780132,0.2177404224336322
2023-01-15 20:02:30.800139,0.21637424384270823
2023-01-15 20:02:30.820069,0.23004384980227915
2023-01-15 20:02:30.840097,0.23004384980227915
2023-01-15 20:02:30.860057,0.23141176679008627
2023-01-15 20:02:30.880123,0.1815952730486532
2023-01-15 20:02:30.900069,0.21500823890918905
2023-01-15 20:02:30.920074,0.22047330072017177
2023-01-15 20:02:30.940094,0.22115662887944043
2023-01-15 20:02:30.960055,0.23620084688986123
2023-01-15 20:02:30.980114,0.22525751029017263
2023-01-15 20:02:31.000061,0.21500823890918905
2023-01-15 20:02:31.020129,0.19249419984582047
2023-01-15 20:02:31.040096,0.2334639685737197
2023-01-15 20:02:31.060055,0.22047330072017177
2023-01-15 20:02:31.08011,0.22047330072017177
2023-01-15 20:02:31.100062,0.2191067747150782
2023-01-15 20:02:31.120044,0.19181269257251396
2023-01-15 20:02:31.140116,0.22730853776033932
2023-01-15 20:02:31.160049,0.19385734420596504
2023-01-15 20:02:31.180135,0.22525751029017263
2023-01-15 20:02:31.200064,0.18091445753217217
2023-01-15 20:02:31.220047,0.21432530155360946
2023-01-15 20:02:31.240347,0.19862971294137066
2023-01-15 20:02:31.260732,0.25126613566043987
2023-01-15 20:02:31.280386,0.21432530155360946
2023-01-15 20:02:31.300309,0.21569121967084254
2023-01-15 20:02:31.321198,0.2232068740338463
2023-01-15 20:02:31.340147,0.18704335286781285
2023-01-15 20:02:31.359979,0.21227674988193876
2023-01-15 20:02:31.380009,0.24099206018549005
2023-01-15 20:02:31.39996,0.1822761317690727
2023-01-15 20:02:31.420151,0.19522066167829463
2023-01-15 20:02:31.440245,0.2225234155321344
2023-01-15 20:02:31.460064,0.2006756633491607
2023-01-15 20:02:31.479966,0.24099206018549005
2023-01-15 20:02:31.499924,0.20340420371554543
2023-01-15 20:02:31.519887,0.213642407599966
2023-01-15 20:02:31.540172,0.21569121967084254
2023-01-15 20:02:31.560072,0.22799230053948746
2023-01-15 20:02:31.580195,0.21022858871600358
2023-01-15 20:02:31.600101,0.21979001600009837
2023-01-15 20:02:31.620063,0.22730853776033932
2023-01-15 20:02:31.640157,0.23414812286538242
2023-01-15 20:02:31.660071,0.23962292434487686
2023-01-15 20:02:31.680144,0.213642407599966
2023-01-15 20:02:31.700062,0.217057311428925
2023-01-15 20:02:31.720246,0.217057311428925
2023-01-15 20:02:31.740298,0.22389037599132675
2023-01-15 20:02:31.760074,0.21842357686096975
2023-01-15 20:02:31.780144,0.22457392140872046
2023-01-15 20:02:31.800075,0.21842357686096975
2023-01-15 20:02:31.820055,0.18976843033021362
2023-01-15 20:02:31.840138,0.23551656201929977
2023-01-15 20:02:31.860119,0.2006756633491607
2023-01-15 20:02:31.880173,0.21500823890918905
2023-01-15 20:02:31.900087,0.23483232067919144
2023-01-15 20:02:31.92006,0.1959023853418343
2023-01-15 20:02:31.940092,0.21979001600009837
2023-01-15 20:02:31.960057,0.2095459550871121
2023-01-15 20:02:31.98012,0.21295955704412137
2023-01-15 20:02:32.000056,0.19385734420596504
2023-01-15 20:02:32.020055,0.2095459550871121
2023-01-15 20:02:32.04009,0.21979001600009837
2023-01-15 20:02:32.060081,0.20135773345150254
2023-01-15 20:02:32.080128,0.21295955704412137
2023-01-15 20:02:32.100082,0.20340420371554543
2023-01-15 20:02:32.120048,0.19931165309822133
2023-01-15 20:02:32.140081,0.221840000482047
2023-01-15 20:02:32.16009,0.213642407599966
2023-01-15 20:02:32.180107,0.24236137028090773
2023-01-15 20:02:32.200051,0.19181269257251396
2023-01-15 20:02:32.22014,0.20613343745478352
2023-01-15 20:02:32.240082,0.20476873389704023
2023-01-15 20:02:32.260062,0.23688517529502975
2023-01-15 20:02:32.280141,0.19522066167829463
2023-01-15 20:02:32.300094,0.21295955704412137
2023-01-15 20:02:32.320069,0.23209579054022336
2023-01-15 20:02:32.340132,0.21842357686096975
2023-01-15 20:02:32.360085,0.22047330072017177
2023-01-15 20:02:32.380108,0.21432530155360946
2023-01-15 20:02:32.40009,0.21091126572201527
2023-01-15 20:02:32.420054,0.2437308546643992
2023-01-15 20:02:32.440103,0.19862971294137066
2023-01-15 20:02:32.46009,0.2444156622245715
2023-01-15 20:02:32.480114,0.18499999877239548
2023-01-15 20:02:32.500078,0.21979001600009837
2023-01-15 20:02:32.520085,0.221840000482047
2023-01-15 20:02:32.540082,0.2006756633491607
2023-01-15 20:02:32.560095,0.2334639685737197
2023-01-15 20:02:32.580158,0.2006756633491607
2023-01-15 20:02:32.600059,0.22389037599132675
2023-01-15 20:02:32.620061,0.24236137028090773
2023-01-15 20:02:32.64011,0.1802336852155173
2023-01-15 20:02:32.660056,0.22730853776033932
2023-01-15 20:02:32.68015,0.2115939861092819
2023-01-15 20:02:32.700064,0.22525751029017263
2023-01-15 20:02:32.720087,0.2464703464287223
2023-01-15 20:02:32.740123,0.20340420371554543
2023-01-15 20:02:32.760062,0.2334639685737197
2023-01-15 20:02:32.780128,0.19999363656610927
2023-01-15 20:02:32.800102,0.20749831442182104
2023-01-15 20:02:32.820053,0.20476873389704023
2023-01-15 20:02:32.840145,0.20545106400181562
2023-01-15 20:02:32.860062,0.2095459550871121
2023-01-15 20:02:32.880125,0.2068158542600748
2023-01-15 20:02:32.900063,0.187724557367839
2023-01-15 20:02:32.920081,0.187724557367839
2023-01-15 20:02:32.940231,0.21842357686096975
2023-01-15 20:02:32.960154,0.1863621916046411
2023-01-15 20:02:32.980207,0.24236137028090773
2023-01-15 20:02:33.000063,0.1959023853418343
2023-01-15 20:02:33.020127,0.17751102786493625
2023-01-15 20:02:33.040095,0.21432530155360946
2023-01-15 20:02:33.060055,0.19113122856489057
2023-01-15 20:02:33.080117,0.20818081794415416
2023-01-15 20:02:33.100082,0.1822761317690727
2023-01-15 20:02:33.12006,0.187724557367839
2023-01-15 20:02:33.140091,0.1863621916046411
2023-01-15 20:02:33.160051,0.1822761317690727
2023-01-15 20:02:33.180129,0.20613343745478352
2023-01-15 20:02:33.200078,0.1856810735742072
2023-01-15 20:02:33.220054,0.17887227016524054
2023-01-15 20:02:33.24009,0.19317575038893042
2023-01-15 20:02:33.260089,0.2095459550871121
2023-01-15 20:02:33.280152,0.19726596254427886
2023-01-15 20:02:33.300058,0.2068158542600748
2023-01-15 20:02:33.320047,0.20476873389704023
2023-01-15 20:02:33.340096,0.17887227016524054
2023-01-15 20:02:33.360064,0.21022858871600358
2023-01-15 20:02:33.380148,0.19453898130104574
2023-01-15 20:02:33.400071,0.20135773345150254
2023-01-15 20:02:33.42005,0.18091445753217217
2023-01-15 20:02:33.440124,0.19249419984582047
2023-01-15 20:02:33.460054,0.17819162742339695
2023-01-15 20:02:33.480143,0.19113122856489057
2023-01-15 20:02:33.500069,0.14760733654417585
2023-01-15 20:02:33.520131,0.19249419984582047
2023-01-15 20:02:33.540101,0.19522066167829463
2023-01-15 20:02:33.560057,0.20749831442182104
2023-01-15 20:02:33.580159,0.18840580510883612
2023-01-15 20:02:33.600078,0.20818081794415416
2023-01-15 20:02:33.620049,0.20476873389704023
2023-01-15 20:02:33.640082,0.19931165309822133
2023-01-15 20:02:33.660064,0.18295703369754324
2023-01-15 20:02:33.680182,0.20476873389704023
2023-01-15 20:02:33.70024,0.19385734420596504
2023-01-15 20:02:33.720482,0.19385734420596504
2023-01-15 20:02:33.740406,0.19113122856489057
2023-01-15 20:02:33.760261,0.20340420371554543
2023-01-15 20:02:33.780214,0.19726596254427886
2023-01-15 20:02:33.799881,0.21979001600009837
2023-01-15 20:02:33.819849,0.23277985780005073
2023-01-15 20:02:33.83988,0.174108677679562
2023-01-15 20:02:33.859842,0.21022858871600358
2023-01-15 20:02:33.879921,0.21842357686096975
2023-01-15 20:02:33.900133,0.1863621916046411
2023-01-15 20:02:33.920051,0.20272200363056678
2023-01-15 20:02:33.94009,0.19317575038893042
2023-01-15 20:02:33.960056,0.20135773345150254
2023-01-15 20:02:33.980107,0.2115939861092819
2023-01-15 20:02:34.000061,0.19862971294137066
2023-01-15 20:02:34.020121,0.1959023853418343
2023-01-15 20:02:34.040097,0.20272200363056678
2023-01-15 20:02:34.060057,0.21022858871600358
2023-01-15 20:02:34.080137,0.19385734420596504
2023-01-15 20:02:34.100075,0.19658415229578782
2023-01-15 20:02:34.12006,0.20340420371554543
2023-01-15 20:02:34.14009,0.21500823890918905
2023-01-15 20:02:34.160164,0.19931165309822133
2023-01-15 20:02:34.18013,0.20886336483120688
2023-01-15 20:02:34.200061,0.217057311428925
2023-01-15 20:02:34.220049,0.213642407599966
2023-01-15 20:02:34.24009,0.1890870960949217
2023-01-15 20:02:34.260047,0.18363797883817798
2023-01-15 20:02:34.280105,0.22115662887944043
2023-01-15 20:02:34.300081,0.2177404224336322
2023-01-15 20:02:34.320177,0.18976843033021362
2023-01-15 20:02:34.340112,0.2177404224336322
2023-01-15 20:02:34.360117,0.2191067747150782
2023-01-15 20:02:34.380119,0.22115662887944043
2023-01-15 20:02:34.400094,0.22525751029017263
2023-01-15 20:02:34.420057,0.19317575038893042
2023-01-15 20:02:34.440094,0.19726596254427886
2023-01-15 20:02:34.46005,0.20886336483120688
2023-01-15 20:02:34.480254,0.20818081794415416
2023-01-15 20:02:34.500264,0.22047330072017177
2023-01-15 20:02:34.520325,0.22525751029017263
2023-01-15 20:02:34.54026,0.24099206018549005
2023-01-15 20:02:34.560341,0.18976843033021362
2023-01-15 20:02:34.580413,0.20135773345150254
2023-01-15 20:02:34.599971,0.22662481846183558
2023-01-15 20:02:34.620123,0.29246073725397687
2023-01-15 20:02:34.639833,0.2917728687009754
2023-01-15 20:02:34.660027,0.21842357686096975
2023-01-15 20:02:34.67983,0.264980174541905
2023-01-15 20:02:34.70022,0.31104978747606615
2023-01-15 20:02:34.71983,0.3041612192717239
2023-01-15 20:02:34.739829,0.2663525394893979
2023-01-15 20:02:34.759907,0.28695901703493076
2023-01-15 20:02:34.780024,0.31036073276743176
2023-01-15 20:02:34.799829,0.30484987825447607
2023-01-15 20:02:34.819878,0.3069161189357986
2023-01-15 20:02:34.839843,0.27527717563891924
2023-01-15 20:02:34.859749,0.24030747048541187
2023-01-15 20:02:34.879743,0.21091126572201527
2023-01-15 20:02:34.899709,0.22389037599132675
2023-01-15 20:02:34.919666,0.2115939861092819
2023-01-15 20:02:34.939701,0.2225234155321344
2023-01-15 20:02:34.959654,0.20613343745478352
2023-01-15 20:02:34.979729,0.23620084688986123
2023-01-15 20:02:34.999661,0.14828604009482954
2023-01-15 20:02:35.019714,0.2191067747150782
2023-01-15 20:02:35.039691,0.21842357686096975
2023-01-15 20:02:35.059721,0.13607595169266967
2023-01-15 20:02:35.079726,0.2068158542600748
2023-01-15 20:02:35.100699,0.19181269257251396
2023-01-15 20:02:35.119852,0.21227674988193876
2023-01-15 20:02:35.139737,0.23414812286538242
2023-01-15 20:02:35.159664,0.23072778654548828
2023-01-15 20:02:35.17986,0.19453898130104574
2023-01-15 20:02:35.199692,0.14625005843569047
2023-01-15 20:02:35.219676,0.20203984687726192
2023-01-15 20:02:35.239689,0.22525751029017263
2023-01-15 20:02:35.259776,0.23004384980227915
2023-01-15 20:02:35.279797,0.19113122856489057
2023-01-15 20:02:35.299723,0.25949246280028027
2023-01-15 20:02:35.320058,0.19385734420596504
2023-01-15 20:02:35.340107,0.22730853776033932
2023-01-15 20:02:35.360051,0.2191067747150782
2023-01-15 20:02:35.380129,0.1959023853418343
2023-01-15 20:02:35.400113,0.21637424384270823
2023-01-15 20:02:35.420053,0.23551656201929977
2023-01-15 20:02:35.440109,0.19522066167829463
2023-01-15 20:02:35.460061,0.18840580510883612
2023-01-15 20:02:35.480118,0.27321698797037863
2023-01-15 20:02:35.500182,0.1959023853418343
2023-01-15 20:02:35.520053,0.187724557367839
2023-01-15 20:02:35.540113,0.25126613566043987
2023-01-15 20:02:35.560049,0.2464703464287223
2023-01-15 20:02:35.580177,0.21500823890918905
2023-01-15 20:02:35.600114,0.22389037599132675
2023-01-15 20:02:35.620058,0.25126613566043987
2023-01-15 20:02:35.640111,0.2807729357085466
2023-01-15 20:02:35.660053,0.24167669344926923
2023-01-15 20:02:35.680147,0.2444156622245715
2023-01-15 20:02:35.700105,0.25812097170997844
2023-01-15 20:02:35.720045,0.24030747048541187
2023-01-15 20:02:35.740111,0.25126613566043987
2023-01-15 20:02:35.760053,0.21432530155360946
2023-01-15 20:02:35.780159,0.22935995655630886
2023-01-15 20:02:35.800144,0.2232068740338463
2023-01-15 20:02:35.820055,0.20545106400181562
2023-01-15 20:02:35.840081,0.25674965529095517
2023-01-15 20:02:35.860049,0.21091126572201527
2023-01-15 20:02:35.880116,0.2177404224336322
2023-01-15 20:02:35.900067,0.21022858871600358
2023-01-15 20:02:35.920054,0.2006756633491607
2023-01-15 20:02:35.940083,0.1979478160914316
2023-01-15 20:02:35.960089,0.21295955704412137
2023-01-15 20:02:35.980111,0.19317575038893042
2023-01-15 20:02:36.00008,0.2040864471363268
2023-01-15 20:02:36.020056,0.2006756633491607
2023-01-15 20:02:36.040081,0.19999363656610927
2023-01-15 20:02:36.060047,0.1890870960949217
2023-01-15 20:02:36.080112,0.21432530155360946
2023-01-15 20:02:36.100115,0.21979001600009837
2023-01-15 20:02:36.120058,0.18499999877239548
2023-01-15 20:02:36.140084,0.19862971294137066
2023-01-15 20:02:36.160046,0.20203984687726192
2023-01-15 20:02:36.180132,0.18499999877239548
2023-01-15 20:02:36.20006,0.19385734420596504
2023-01-15 20:02:36.22009,0.19862971294137066
2023-01-15 20:02:36.240147,0.23072778654548828
2023-01-15 20:02:36.260055,0.2095459550871121
2023-01-15 20:02:36.280104,0.2068158542600748
2023-01-15 20:02:36.300059,0.20203984687726192
2023-01-15 20:02:36.32008,0.2115939861092819
2023-01-15 20:02:36.340083,0.20272200363056678
2023-01-15 20:02:36.360045,0.213642407599966
2023-01-15 20:02:36.380112,0.21091126572201527
2023-01-15 20:02:36.400097,0.19999363656610927
2023-01-15 20:02:36.420131,0.18976843033021362
2023-01-15 20:02:36.440087,0.21842357686096975
2023-01-15 20:02:36.460047,0.19999363656610927
2023-01-15 20:02:36.480125,0.2095459550871121
2023-01-15 20:02:36.500063,0.21637424384270823
2023-01-15 20:02:36.520088,0.20613343745478352
2023-01-15 20:02:36.540123,0.21500823890918905
2023-01-15 20:02:36.560082,0.22730853776033932
2023-01-15 20:02:36.580118,0.21500823890918905
2023-01-15 20:02:36.600057,0.19317575038893042
2023-01-15 20:02:36.62009,0.2115939861092819
2023-01-15 20:02:36.640134,0.20135773345150254
2023-01-15 20:02:36.660056,0.21500823890918905
2023-01-15 20:02:36.680136,0.2095459550871121
2023-01-15 20:02:36.700127,0.20545106400181562
2023-01-15 20:02:36.720087,0.22047330072017177
2023-01-15 20:02:36.740084,0.20818081794415416
2023-01-15 20:02:36.760049,0.20340420371554543
2023-01-15 20:02:36.780112,0.20545106400181562
2023-01-15 20:02:36.800056,0.2232068740338463
2023-01-15 20:02:36.820088,0.23004384980227915
2023-01-15 20:02:36.840076,0.21091126572201527
2023-01-15 20:02:36.860048,0.1822761317690727
2023-01-15 20:02:36.880156,0.20545106400181562
2023-01-15 20:02:36.900056,0.23209579054022336
2023-01-15 20:02:36.920082,0.21295955704412137
2023-01-15 20:02:36.940081,0.20476873389704023
2023-01-15 20:02:36.960048,0.2225234155321344
2023-01-15 20:02:36.980107,0.21432530155360946
2023-01-15 20:02:37.000056,0.20203984687726192
2023-01-15 20:02:37.020155,0.20340420371554543
2023-01-15 20:02:37.04009,0.22594114263982892
2023-01-15 20:02:37.06005,0.22867610680342781
2023-01-15 20:02:37.080126,0.20135773345150254
2023-01-15 20:02:37.100119,0.1959023853418343
2023-01-15 20:02:37.120081,0.19862971294137066
2023-01-15 20:02:37.140083,0.23004384980227915
2023-01-15 20:02:37.160087,0.20545106400181562
2023-01-15 20:02:37.180108,0.19726596254427886
2023-01-15 20:02:37.200055,0.187724557367839
2023-01-15 20:02:37.220079,0.21022858871600358
2023-01-15 20:02:37.240077,0.2232068740338463
2023-01-15 20:02:37.260047,0.22525751029017263
2023-01-15 20:02:37.280108,0.21091126572201527
2023-01-15 20:02:37.300082,0.2225234155321344
2023-01-15 20:02:37.320089,0.2177404224336322
2023-01-15 20:02:37.34012,0.21432530155360946
2023-01-15 20:02:37.360047,0.22047330072017177
2023-01-15 20:02:37.380103,0.1890870960949217
2023-01-15 20:02:37.400076,0.2040864471363268
2023-01-15 20:02:37.420044,0.21979001600009837
2023-01-15 20:02:37.440076,0.21842357686096975
2023-01-15 20:02:37.460045,0.21979001600009837
2023-01-15 20:02:37.480098,0.19317575038893042
2023-01-15 20:02:37.500088,0.1979478160914316
2023-01-15 20:02:37.520158,0.21091126572201527
2023-01-15 20:02:37.54011,0.22867610680342781
2023-01-15 20:03:09.820022,0.14082266530691223
2023-01-15 20:03:09.840105,0.16186914718871923
2023-01-15 20:03:09.860101,0.14082266530691223
2023-01-15 20:03:09.880246,0.16798716600131114
2023-01-15 20:03:09.900077,0.16390809888128582
2023-01-15 20:03:09.920038,0.1313313416277188
2023-01-15 20:03:09.940084,0.18431896719509067
2023-01-15 20:03:09.960045,0.13946624668767665
2023-01-15 20:03:09.980088,0.13946624668767665
2023-01-15 20:03:10.000028,0.13878810180505383
2023-01-15 20:03:10.020018,0.14692867599249154
2023-01-15 20:03:10.040045,0.1530381692638925
2023-01-15 20:03:10.060032,0.14896478664853924
2023-01-15 20:03:10.080127,0.14150093905168643
2023-01-15 20:03:10.100046,0.14692867599249154
2023-01-15 20:03:10.120032,0.1238797724774155
2023-01-15 20:03:10.140053,0.13065371182664665
2023-01-15 20:03:10.160037,0.14489295229039612
2023-01-15 20:03:10.180117,0.1537172169534645
2023-01-15 20:03:10.200041,0.1543963076788044
2023-01-15 20:03:10.220015,0.1144034563303042
2023-01-15 20:03:10.240041,0.1564338381103479
2023-01-15 20:03:10.260233,0.1184637068444242
2023-01-15 20:03:10.280082,0.15032240878147599
2023-01-15 20:03:10.300023,0.13810999986832082
2023-01-15 20:03:10.320017,0.13472013423024282
2023-01-15 20:03:10.34006,0.13946624668767665
2023-01-15 20:03:10.360073,0.12997612492254543
2023-01-15 20:03:10.380077,0.14557148386968702
2023-01-15 20:03:10.400021,0.15779240698523814
2023-01-15 20:03:10.420032,0.13200901432983567
2023-01-15 20:03:10.440051,0.1537172169534645
2023-01-15 20:03:10.460031,0.11981746622897595
2023-01-15 20:03:10.480108,0.1530381692638925
2023-01-15 20:03:10.500027,0.15032240878147599
2023-01-15 20:03:10.520015,0.12929858091134191
2023-01-15 20:03:10.540045,0.15915114810142364
2023-01-15 20:03:10.560139,0.12455697349201138
2023-01-15 20:03:10.580113,0.14896478664853924
2023-01-15 20:03:10.600025,0.16798716600131114
2023-01-15 20:03:10.620016,0.13607595169266967
2023-01-15 20:03:10.640057,0.15235916460599774
2023-01-15 20:03:10.660031,0.1184637068444242
2023-01-15 20:03:10.680109,0.13743194087339833
2023-01-15 20:03:10.700034,0.16118958279979007
2023-01-15 20:03:10.720018,0.13743194087339833
2023-01-15 20:03:10.740054,0.12929858091134191
2023-01-15 20:03:10.760033,0.10088041085840059
2023-01-15 20:03:10.780075,0.1435360180756139
2023-01-15 20:03:10.800105,0.13675392481620743
2023-01-15 20:03:10.82007,0.12184842655492757
2023-01-15 20:03:10.84005,0.1530381692638925
2023-01-15 20:03:10.860034,0.14014443452026934
2023-01-15 20:03:10.880132,0.14828604009482954
2023-01-15 20:03:10.900022,0.16118958279979007
2023-01-15 20:03:10.920017,0.10763979565563339
2023-01-15 20:02:37.580283,0.213642407599966
2023-01-15 20:02:37.600569,0.19522066167829463
2023-01-15 20:02:37.62047,0.1822761317690727
2023-01-15 20:02:37.64008,0.22867610680342781
2023-01-15 20:02:37.659977,0.20749831442182104
2023-01-15 20:02:37.680272,0.22867610680342781
2023-01-15 20:02:37.699849,0.23072778654548828
2023-01-15 20:02:37.719838,0.23414812286538242
2023-01-15 20:02:37.73976,0.24167669344926923
2023-01-15 20:02:37.759671,0.19862971294137066
2023-01-15 20:02:37.779767,0.19113122856489057
2023-01-15 20:02:37.799674,0.2006756633491607
2023-01-15 20:02:37.819676,0.2068158542600748
2023-01-15 20:02:37.839677,0.22047330072017177
2023-01-15 20:02:37.859713,0.16934719997193287
2023-01-15 20:02:37.879735,0.21295955704412137
2023-01-15 20:02:37.899696,0.22662481846183558
2023-01-15 20:02:37.919653,0.22662481846183558
2023-01-15 20:02:37.939809,0.20613343745478352
2023-01-15 20:02:37.959664,0.2225234155321344
2023-01-15 20:02:37.979747,0.24167669344926923
2023-01-15 20:02:37.999666,0.21295955704412137
2023-01-15 20:02:38.019651,0.1979478160914316
2023-01-15 20:02:38.039709,0.2177404224336322
2023-01-15 20:02:38.059649,0.23620084688986123
2023-01-15 20:02:38.07974,0.19658415229578782
2023-01-15 20:02:38.099668,0.20272200363056678
2023-01-15 20:02:38.119649,0.213642407599966
2023-01-15 20:02:38.139671,0.2095459550871121
2023-01-15 20:02:38.159649,0.16594743844858642
2023-01-15 20:02:38.179715,0.2177404224336322
2023-01-15 20:02:38.19966,0.21500823890918905
2023-01-15 20:02:38.219646,0.19999363656610927
2023-01-15 20:02:38.239667,0.18431896719509067
2023-01-15 20:02:38.259644,0.2068158542600748
2023-01-15 20:02:38.279709,0.2040864471363268
2023-01-15 20:02:38.299658,0.16254875466254637
2023-01-15 20:02:38.319661,0.20135773345150254
2023-01-15 20:02:38.340094,0.18976843033021362
2023-01-15 20:02:38.360045,0.21022858871600358
2023-01-15 20:02:38.380104,0.2225234155321344
2023-01-15 20:02:38.400063,0.19385734420596504
2023-01-15 20:02:38.42004,0.18499999877239548
2023-01-15 20:02:38.440076,0.19317575038893042
2023-01-15 20:02:38.46004,0.1890870960949217
2023-01-15 20:02:38.480191,0.21842357686096975
2023-01-15 20:02:38.500092,0.18295703369754324
2023-01-15 20:02:38.520063,0.18363797883817798
2023-01-15 20:02:38.540231,0.21500823890918905
2023-01-15 20:02:38.560001,0.19999363656610927
2023-01-15 20:02:38.580039,0.2177404224336322
2023-01-15 20:02:38.600001,0.1184637068444242
2023-01-15 20:02:38.619973,0.18499999877239548
2023-01-15 20:02:38.640082,0.22662481846183558
2023-01-15 20:02:38.659782,0.22935995655630886
2023-01-15 20:02:38.679871,0.1720677855060035
2023-01-15 20:02:38.699785,0.17683047148574899
2023-01-15 20:02:38.719923,0.2191067747150782
2023-01-15 20:02:38.739905,0.16798716600131114
2023-01-15 20:02:38.759847,0.1959023853418343
2023-01-15 20:02:38.779908,0.21432530155360946
2023-01-15 20:02:38.79984,0.16254875466254637
2023-01-15 20:02:38.819827,0.1856810735742072
2023-01-15 20:02:38.839851,0.22525751029017263
2023-01-15 20:02:38.859792,0.217057311428925
2023-01-15 20:02:38.879999,0.19181269257251396
2023-01-15 20:02:38.899813,0.1979478160914316
2023-01-15 20:02:38.919774,0.22047330072017177
2023-01-15 20:02:38.939808,0.15779240698523814
2023-01-15 20:02:38.959849,0.1890870960949217
2023-01-15 20:02:38.979941,0.20613343745478352
2023-01-15 20:02:38.999844,0.15779240698523814
2023-01-15 20:02:39.019899,0.19385734420596504
2023-01-15 20:02:39.039858,0.21569121967084254
2023-01-15 20:02:39.059844,0.1564338381103479
2023-01-15 20:02:39.079846,0.1863621916046411
2023-01-15 20:02:39.099844,0.1815952730486532
2023-01-15 20:02:39.119778,0.20135773345150254
2023-01-15 20:02:39.139801,0.16118958279979007
2023-01-15 20:02:39.159797,0.20340420371554543
2023-01-15 20:02:39.179887,0.20818081794415416
2023-01-15 20:02:39.199781,0.16390809888128582
2023-01-15 20:02:39.219768,0.20476873389704023
2023-01-15 20:02:39.239787,0.19726596254427886
2023-01-15 20:02:39.259916,0.1822761317690727
2023-01-15 20:02:39.279912,0.21022858871600358
2023-01-15 20:02:39.299864,0.19044980781883028
2023-01-15 20:02:39.319831,0.20203984687726192
2023-01-15 20:02:39.339854,0.19453898130104574
2023-01-15 20:02:39.35991,0.1863621916046411
2023-01-15 20:02:39.379848,0.17138757441312333
2023-01-15 20:02:39.399793,0.19317575038893042
2023-01-15 20:02:39.419768,0.1754694882487593
2023-01-15 20:02:39.439826,0.1761499582817262
2023-01-15 20:02:39.459769,0.20340420371554543
2023-01-15 20:02:39.479912,0.23004384980227915
2023-01-15 20:02:39.499858,0.23004384980227915
2023-01-15 20:02:39.519832,0.15711310101967813
2023-01-15 20:02:39.539855,0.19317575038893042
2023-01-15 20:02:39.559819,0.21227674988193876
2023-01-15 20:02:39.579926,0.19317575038893042
2023-01-15 20:02:39.59981,0.20613343745478352
2023-01-15 20:02:39.619772,0.23756954723896004
2023-01-15 20:02:39.639838,0.17751102786493625
2023-01-15 20:02:39.659769,0.1802336852155173
2023-01-15 20:02:39.679994,0.16866716142367352
2023-01-15 20:02:39.699995,0.2006756633491607
2023-01-15 20:02:39.719834,0.18363797883817798
2023-01-15 20:02:39.739996,0.19726596254427886
2023-01-15 20:02:39.759882,0.17955295609457714
2023-01-15 20:02:39.7799,0.20545106400181562
2023-01-15 20:02:39.799815,0.23072778654548828
2023-01-15 20:02:39.819799,0.16390809888128582
2023-01-15 20:02:39.839987,0.21500823890918905
2023-01-15 20:02:39.859853,0.19522066167829463
2023-01-15 20:02:39.879902,0.17070740646255425
2023-01-15 20:02:39.899848,0.17138757441312333
2023-01-15 20:02:39.919803,0.1890870960949217
2023-01-15 20:02:39.939837,0.22867610680342781
2023-01-15 20:02:39.959795,0.16118958279979007
2023-01-15 20:02:39.979879,0.18976843033021362
2023-01-15 20:02:39.999812,0.221840000482047
2023-01-15 20:02:40.019794,0.17683047148574899
2023-01-15 20:02:40.039819,0.21295955704412137
2023-01-15 20:02:40.059798,0.22594114263982892
2023-01-15 20:02:40.079917,0.17955295609457714
2023-01-15 20:02:40.099895,0.2177404224336322
2023-01-15 20:02:40.119829,0.22389037599132675
2023-01-15 20:02:40.139903,0.2006756633491607
2023-01-15 20:02:40.159825,0.20886336483120688
2023-01-15 20:02:40.180019,0.1822761317690727
2023-01-15 20:02:40.199789,0.21500823890918905
2023-01-15 20:02:40.219768,0.17751102786493625
2023-01-15 20:02:40.23981,0.22662481846183558
2023-01-15 20:02:40.259925,0.2095459550871121
2023-01-15 20:02:40.279925,0.19453898130104574
2023-01-15 20:02:40.299918,0.21637424384270823
2023-01-15 20:02:40.319875,0.21091126572201527
2023-01-15 20:02:40.339861,0.16322840522536922
2023-01-15 20:02:40.359829,0.19044980781883028
2023-01-15 20:02:40.379978,0.2232068740338463
2023-01-15 20:02:40.399858,0.15235916460599774
2023-01-15 20:02:40.41978,0.20476873389704023
2023-01-15 20:02:40.439811,0.18976843033021362
2023-01-15 20:02:40.459773,0.2232068740338463
2023-01-15 20:02:40.47984,0.19453898130104574
2023-01-15 20:02:40.499872,0.2068158542600748
2023-01-15 20:02:40.519826,0.20135773345150254
2023-01-15 20:02:40.539853,0.18431896719509067
2023-01-15 20:02:40.559839,0.21091126572201527
2023-01-15 20:02:40.579908,0.22457392140872046
2023-01-15 20:02:40.599828,0.16390809888128582
2023-01-15 20:02:40.619772,0.17955295609457714
2023-01-15 20:02:40.639805,0.22662481846183558
2023-01-15 20:02:40.659769,0.174108677679562
2023-01-15 20:02:40.679871,0.21227674988193876
2023-01-15 20:02:40.699874,0.19044980781883028
2023-01-15 20:02:40.719831,0.19658415229578782
2023-01-15 20:02:40.739907,0.18431896719509067
2023-01-15 20:02:40.759829,0.19658415229578782
2023-01-15 20:02:40.779956,0.21022858871600358
2023-01-15 20:02:40.799885,0.22867610680342781
2023-01-15 20:02:40.819812,0.1815952730486532
2023-01-15 20:02:40.839822,0.213642407599966
2023-01-15 20:02:40.859857,0.2095459550871121
2023-01-15 20:02:40.87987,0.17819162742339695
2023-01-15 20:02:40.899834,0.19113122856489057
2023-01-15 20:02:40.919837,0.22730853776033932
2023-01-15 20:02:40.939822,0.20272200363056678
2023-01-15 20:02:40.959791,0.18431896719509067
2023-01-15 20:02:40.979868,0.2115939861092819
2023-01-15 20:02:40.999858,0.23004384980227915
2023-01-15 20:02:41.019901,0.2006756633491607
2023-01-15 20:02:41.039856,0.20203984687726192
2023-01-15 20:02:41.059834,0.23209579054022336
2023-01-15 20:02:41.079884,0.1734283371351172
2023-01-15 20:02:41.09986,0.19658415229578782
2023-01-15 20:02:41.119829,0.1979478160914316
2023-01-15 20:02:41.139847,0.21295955704412137
2023-01-15 20:02:41.159819,0.1754694882487593
2023-01-15 20:02:41.179889,0.19999363656610927
2023-01-15 20:02:41.199923,0.1979478160914316
2023-01-15 20:02:41.220149,0.19931165309822133
2023-01-15 20:02:41.240201,0.20476873389704023
2023-01-15 20:02:41.260132,0.17751102786493625
2023-01-15 20:02:41.28018,0.19181269257251396
2023-01-15 20:02:41.300265,0.1959023853418343
2023-01-15 20:02:41.320043,0.2068158542600748
2023-01-15 20:02:41.34006,0.1890870960949217
2023-01-15 20:02:41.36003,0.19999363656610927
2023-01-15 20:02:41.380098,0.21637424384270823
2023-01-15 20:02:41.400062,0.19658415229578782
2023-01-15 20:02:41.420035,0.174108677679562
2023-01-15 20:02:41.440077,0.17751102786493625
2023-01-15 20:02:41.460051,0.21091126572201527
2023-01-15 20:02:41.48009,0.18499999877239548
2023-01-15 20:02:41.500109,0.20272200363056678
2023-01-15 20:02:41.520144,0.1979478160914316
2023-01-15 20:02:41.540103,0.1761499582817262
2023-01-15 20:02:41.560041,0.17887227016524054
2023-01-15 20:02:41.580102,0.2115939861092819
2023-01-15 20:02:41.600117,0.19249419984582047
2023-01-15 20:02:41.620043,0.17887227016524054
2023-01-15 20:02:41.640071,0.17478906138274036
2023-01-15 20:02:41.660037,0.19999363656610927
2023-01-15 20:02:41.68018,0.18499999877239548
2023-01-15 20:02:41.700127,0.19317575038893042
2023-01-15 20:02:41.720041,0.1754694882487593
2023-01-15 20:02:41.740067,0.16730721370074356
2023-01-15 20:02:41.760036,0.174108677679562
2023-01-15 20:02:41.780102,0.21022858871600358
2023-01-15 20:02:41.800058,0.19181269257251396
2023-01-15 20:02:41.82004,0.174108677679562
2023-01-15 20:02:41.840057,0.1959023853418343
2023-01-15 20:02:41.860036,0.20818081794415416
2023-01-15 20:02:41.880095,0.1645878356343947
2023-01-15 20:02:41.900069,0.17683047148574899
2023-01-15 20:02:41.92006,0.17751102786493625
2023-01-15 20:02:41.940064,0.16254875466254637
2023-01-15 20:02:41.960045,0.1959023853418343
2023-01-15 20:02:41.980097,0.20749831442182104
2023-01-15 20:02:42.000043,0.18976843033021362
2023-01-15 20:02:42.020044,0.17819162742339695
2023-01-15 20:02:42.040055,0.19453898130104574
2023-01-15 20:02:42.060032,0.18431896719509067
2023-01-15 20:02:42.080123,0.1734283371351172
2023-01-15 20:02:42.100058,0.1802336852155173
2023-01-15 20:02:42.120085,0.20272200363056678
2023-01-15 20:02:42.140079,0.16866716142367352
2023-01-15 20:02:42.160072,0.16662730451786906
2023-01-15 20:02:42.180095,0.20818081794415416
2023-01-15 20:02:42.200081,0.16594743844858642
2023-01-15 20:02:42.220046,0.1822761317690727
2023-01-15 20:02:42.240057,0.1863621916046411
2023-01-15 20:02:42.260037,0.1815952730486532
2023-01-15 20:02:42.280089,0.15100128436887894
2023-01-15 20:02:42.300059,0.19113122856489057
2023-01-15 20:02:42.320061,0.1727480397452997
2023-01-15 20:02:42.340054,0.1863621916046411
2023-01-15 20:02:42.360032,0.16254875466254637
2023-01-15 20:02:42.38014,0.19999363656610927
2023-01-15 20:02:42.400043,0.18295703369754324
2023-01-15 20:02:42.420052,0.16118958279979007
2023-01-15 20:02:42.440064,0.19522066167829463
2023-01-15 20:02:42.460037,0.1822761317690727
2023-01-15 20:02:42.480101,0.16866716142367352
2023-01-15 20:02:42.500064,0.21091126572201527
2023-01-15 20:02:42.520052,0.16662730451786906
2023-01-15 20:02:42.540072,0.1959023853418343
2023-01-15 20:02:42.560028,0.22935995655630886
2023-01-15 20:02:42.580095,0.15575461825315406
2023-01-15 20:02:42.600036,0.21842357686096975
2023-01-15 20:02:42.62006,0.2498956920974781
2023-01-15 20:02:42.640137,0.19317575038893042
2023-01-15 20:02:42.660083,0.2498956920974781
2023-01-15 20:02:42.680123,0.23414812286538242
2023-01-15 20:02:42.700057,0.26841141480544056
2023-01-15 20:02:42.720112,0.24099206018549005
2023-01-15 20:02:42.740069,0.248525423005722
2023-01-15 20:02:42.76003,0.22662481846183558
2023-01-15 20:02:42.780103,0.23688517529502975
2023-01-15 20:02:42.800035,0.22457392140872046
2023-01-15 20:02:42.820065,0.17955295609457714
2023-01-15 20:02:42.840181,0.22525751029017263
2023-01-15 20:02:42.860049,0.23004384980227915
2023-01-15 20:02:42.880096,0.16051006149166203
2023-01-15 20:02:42.900069,0.2334639685737197
2023-01-15 20:02:42.920053,0.1727480397452997
2023-01-15 20:02:42.940213,0.2574352916686426
2023-01-15 20:02:42.960185,0.20476873389704023
2023-01-15 20:02:42.980105,0.16798716600131114
2023-01-15 20:02:43.000041,0.17478906138274036
2023-01-15 20:02:43.020069,0.15032240878147599
2023-01-15 20:02:43.040014,0.16390809888128582
2023-01-15 20:02:43.059972,0.1863621916046411
2023-01-15 20:02:43.080018,0.18704335286781285
2023-01-15 20:02:43.099982,0.15235916460599774
2023-01-15 20:02:43.120111,0.17887227016524054
2023-01-15 20:02:43.140068,0.18091445753217217
2023-01-15 20:02:43.160043,0.13743194087339833
2023-01-15 20:02:43.180096,0.17955295609457714
2023-01-15 20:02:43.200035,0.17955295609457714
2023-01-15 20:02:43.220049,0.16526761548879507
2023-01-15 20:02:43.240061,0.16934719997193287
2023-01-15 20:02:43.260105,0.19113122856489057
2023-01-15 20:02:43.280097,0.14760733654417585
2023-01-15 20:02:43.300105,0.1761499582817262
2023-01-15 20:02:43.320099,0.19385734420596504
2023-01-15 20:02:43.340133,0.174108677679562
2023-01-15 20:02:43.360032,0.17478906138274036
2023-01-15 20:02:43.380104,0.17070740646255425
2023-01-15 20:02:43.400044,0.17002728165019204
2023-01-15 20:02:43.42005,0.2040864471363268
2023-01-15 20:02:43.440063,0.217057311428925
2023-01-15 20:02:43.460034,0.1734283371351172
2023-01-15 20:02:43.48009,0.21295955704412137
2023-01-15 20:02:43.500052,0.21842357686096975
2023-01-15 20:02:43.520068,0.21022858871600358
2023-01-15 20:02:43.540059,0.22594114263982892
2023-01-15 20:02:43.560028,0.21091126572201527
2023-01-15 20:02:43.580204,0.22115662887944043
2023-01-15 20:02:43.600053,0.21500823890918905
2023-01-15 20:02:43.620058,0.213642407599966
2023-01-15 20:02:43.640059,0.21569121967084254
2023-01-15 20:02:43.660033,0.2177404224336322
2023-01-15 20:02:43.680135,0.19931165309822133
2023-01-15 20:02:43.700059,0.18431896719509067
2023-01-15 20:02:43.720102,0.16390809888128582
2023-01-15 20:02:43.740074,0.22047330072017177
2023-01-15 20:02:43.760086,0.1979478160914316
2023-01-15 20:02:43.780096,0.17819162742339695
2023-01-15 20:02:43.800037,0.23209579054022336
2023-01-15 20:02:43.820048,0.14625005843569047
2023-01-15 20:02:43.840059,0.15575461825315406
2023-01-15 20:02:43.860114,0.17751102786493625
2023-01-15 20:02:43.880094,0.13607595169266967
2023-01-15 20:02:43.900055,0.16662730451786906
2023-01-15 20:02:43.920219,0.16118958279979007
2023-01-15 20:02:43.940118,0.14557148386968702
2023-01-15 20:02:43.960044,0.16526761548879507
2023-01-15 20:02:43.980146,0.15235916460599774
2023-01-15 20:02:44.000039,0.15100128436887894
2023-01-15 20:02:44.020067,0.16254875466254637
2023-01-15 20:02:44.040082,0.15983058326023855
2023-01-15 20:02:44.060033,0.1564338381103479
2023-01-15 20:02:44.08009,0.133364488453501
2023-01-15 20:02:44.100051,0.14285761543195497
2023-01-15 20:02:44.120043,0.15983058326023855
2023-01-15 20:02:44.140061,0.15983058326023855
2023-01-15 20:02:44.160031,0.16322840522536922
2023-01-15 20:02:44.1801,0.13946624668767665
2023-01-15 20:02:44.200038,0.14489295229039612
2023-01-15 20:02:44.220092,0.16594743844858642
2023-01-15 20:02:44.240055,0.15711310101967813
2023-01-15 20:02:44.260024,0.13878810180505383
2023-01-15 20:02:44.280091,0.17070740646255425
2023-01-15 20:02:44.300048,0.16866716142367352
2023-01-15 20:02:44.320049,0.14557148386968702
2023-01-15 20:02:44.340059,0.1543963076788044
2023-01-15 20:02:44.360032,0.14489295229039612
2023-01-15 20:02:44.380093,0.13472013423024282
2023-01-15 20:02:44.400063,0.16254875466254637
2023-01-15 20:02:44.420047,0.15168020297568977
2023-01-15 20:02:44.440102,0.15711310101967813
2023-01-15 20:02:44.460033,0.13675392481620743
2023-01-15 20:02:44.480114,0.15507544144400368
2023-01-15 20:02:44.500052,0.14828604009482954
2023-01-15 20:02:44.520114,0.14760733654417585
2023-01-15 20:02:44.540069,0.1727480397452997
2023-01-15 20:02:44.560051,0.13607595169266967
2023-01-15 20:02:44.580116,0.15032240878147599
2023-01-15 20:02:44.600038,0.15507544144400368
2023-01-15 20:02:44.620053,0.1720677855060035
2023-01-15 20:02:44.640056,0.1238797724774155
2023-01-15 20:02:44.66003,0.14014443452026934
2023-01-15 20:02:44.680174,0.16322840522536922
2023-01-15 20:02:44.700054,0.13472013423024282
2023-01-15 20:02:44.720049,0.16934719997193287
2023-01-15 20:02:44.740177,0.12320261431908154
2023-01-15 20:02:44.760041,0.14285761543195497
2023-01-15 20:02:44.780111,0.17070740646255425
2023-01-15 20:02:44.800049,0.14421446369373303
2023-01-15 20:02:44.820053,0.14692867599249154
2023-01-15 20:02:44.840204,0.16390809888128582
2023-01-15 20:02:44.86013,0.17002728165019204
2023-01-15 20:02:44.880114,0.14964357620939217
2023-01-15 20:02:44.900165,0.16662730451786906
2023-01-15 20:02:44.920053,0.14964357620939217
2023-01-15 20:02:44.940102,0.14760733654417585
2023-01-15 20:02:44.960032,0.14150093905168643
2023-01-15 20:02:44.98011,0.17138757441312333
2023-01-15 20:02:45.000038,0.18295703369754324
2023-01-15 20:02:45.020116,0.13472013423024282
2023-01-15 20:02:45.040065,0.15168020297568977
2023-01-15 20:02:45.060042,0.16526761548879507
2023-01-15 20:02:45.08009,0.14964357620939217
2023-01-15 20:02:45.100054,0.16186914718871923
2023-01-15 20:02:45.12009,0.1754694882487593
2023-01-15 20:02:45.14011,0.1530381692638925
2023-01-15 20:02:45.160033,0.15575461825315406
2023-01-15 20:02:45.180136,0.13065371182664665
2023-01-15 20:02:45.200036,0.133364488453501
2023-01-15 20:02:45.220046,0.16594743844858642
2023-01-15 20:02:45.240059,0.16866716142367352
2023-01-15 20:02:45.260029,0.1530381692638925
2023-01-15 20:02:45.280085,0.13946624668767665
2023-01-15 20:02:45.300049,0.16866716142367352
2023-01-15 20:02:45.320038,0.1238797724774155
2023-01-15 20:02:45.340051,0.1564338381103479
2023-01-15 20:02:45.360046,0.1727480397452997
2023-01-15 20:02:45.380086,0.14285761543195497
2023-01-15 20:02:45.40005,0.1537172169534645
2023-01-15 20:02:45.420102,0.17683047148574899
2023-01-15 20:02:45.440069,0.14557148386968702
2023-01-15 20:02:45.460039,0.15032240878147599
2023-01-15 20:02:45.480099,0.1720677855060035
2023-01-15 20:02:45.500059,0.15983058326023855
2023-01-15 20:02:45.520102,0.13946624668767665
2023-01-15 20:02:45.540077,0.17002728165019204
2023-01-15 20:02:45.56003,0.16390809888128582
2023-01-15 20:02:45.580121,0.1435360180756139
2023-01-15 20:02:45.600084,0.14692867599249154
2023-01-15 20:02:45.620052,0.14828604009482954
2023-01-15 20:02:45.640105,0.12184842655492757
2023-01-15 20:02:45.660024,0.1645878356343947
2023-01-15 20:02:45.680135,0.14692867599249154
2023-01-15 20:02:45.700063,0.1530381692638925
2023-01-15 20:02:45.720081,0.14760733654417585
2023-01-15 20:02:45.740072,0.16186914718871923
2023-01-15 20:02:45.76057,0.15779240698523814
2023-01-15 20:02:45.780076,0.14692867599249154
2023-01-15 20:02:45.800097,0.1543963076788044
2023-01-15 20:02:45.820102,0.1564338381103479
2023-01-15 20:02:45.840078,0.14828604009482954
2023-01-15 20:02:45.860045,0.15168020297568977
2023-01-15 20:02:45.880096,0.1727480397452997
2023-01-15 20:02:45.900051,0.16866716142367352
2023-01-15 20:02:45.920046,0.14692867599249154
2023-01-15 20:02:45.940059,0.14828604009482954
2023-01-15 20:02:45.960091,0.17683047148574899
2023-01-15 20:02:45.980092,0.15507544144400368
2023-01-15 20:02:46.000034,0.15711310101967813
2023-01-15 20:02:46.020051,0.1727480397452997
2023-01-15 20:02:46.040089,0.13810999986832082
2023-01-15 20:02:46.060038,0.13539802149870728
2023-01-15 20:02:46.080112,0.1959023853418343
2023-01-15 20:02:46.100132,0.14557148386968702
2023-01-15 20:02:46.120057,0.17683047148574899
2023-01-15 20:02:46.140075,0.20203984687726192
2023-01-15 20:02:46.160031,0.1435360180756139
2023-01-15 20:02:46.180103,0.18363797883817798
2023-01-15 20:02:46.200031,0.1720677855060035
2023-01-15 20:02:46.220052,0.1754694882487593
2023-01-15 20:02:46.240056,0.16254875466254637
2023-01-15 20:02:46.260035,0.2006756633491607
2023-01-15 20:02:46.280124,0.16186914718871923
2023-01-15 20:02:46.300083,0.1727480397452997
2023-01-15 20:02:46.320094,0.1734283371351172
2023-01-15 20:02:46.340071,0.16186914718871923
2023-01-15 20:02:46.360036,0.18091445753217217
2023-01-15 20:02:46.380099,0.20340420371554543
2023-01-15 20:02:46.400043,0.20135773345150254
2023-01-15 20:02:46.420044,0.16118958279979007
2023-01-15 20:02:46.440057,0.20272200363056678
2023-01-15 20:02:46.460032,0.20135773345150254
2023-01-15 20:02:46.480083,0.16934719997193287
2023-01-15 20:02:46.500152,0.17955295609457714
2023-01-15 20:02:46.520062,0.19522066167829463
2023-01-15 20:02:46.54011,0.17819162742339695
2023-01-15 20:02:46.560076,0.1863621916046411
2023-01-15 20:02:46.580094,0.17478906138274036
2023-01-15 20:02:46.600038,0.16594743844858642
2023-01-15 20:02:46.620053,0.17070740646255425
2023-01-15 20:02:46.640081,0.2068158542600748
2023-01-15 20:02:46.660033,0.1734283371351172
2023-01-15 20:02:46.680214,0.17683047148574899
2023-01-15 20:02:46.700077,0.2040864471363268
2023-01-15 20:02:46.720058,0.1822761317690727
2023-01-15 20:02:46.740111,0.1727480397452997
2023-01-15 20:02:46.760078,0.17002728165019204
2023-01-15 20:02:46.780114,0.17751102786493625
2023-01-15 20:02:46.800037,0.16594743844858642
2023-01-15 20:02:46.820086,0.18976843033021362
2023-01-15 20:02:46.84007,0.18431896719509067
2023-01-15 20:02:46.860107,0.16662730451786906
2023-01-15 20:02:46.880114,0.17751102786493625
2023-01-15 20:02:46.900054,0.20135773345150254
2023-01-15 20:02:46.920092,0.1720677855060035
2023-01-15 20:02:46.94011,0.18840580510883612
2023-01-15 20:02:46.960064,0.19249419984582047
2023-01-15 20:02:46.980095,0.15847175601112184
2023-01-15 20:02:47.000038,0.1734283371351172
2023-01-15 20:02:47.020135,0.18363797883817798
2023-01-15 20:02:47.040065,0.15915114810142364
2023-01-15 20:02:47.060039,0.174108677679562
2023-01-15 20:02:47.080086,0.18499999877239548
2023-01-15 20:02:47.100051,0.1754694882487593
2023-01-15 20:02:47.120041,0.17070740646255425
2023-01-15 20:02:47.140057,0.19726596254427886
2023-01-15 20:02:47.160032,0.18840580510883612
2023-01-15 20:02:47.180092,0.17138757441312333
2023-01-15 20:02:47.200058,0.17683047148574899
2023-01-15 20:02:47.220042,0.1822761317690727
2023-01-15 20:02:47.240061,0.18431896719509067
2023-01-15 20:02:47.260232,0.19385734420596504
2023-01-15 20:02:47.280094,0.187724557367839
2023-01-15 20:02:47.300056,0.18840580510883612
2023-01-15 20:02:47.320053,0.17819162742339695
2023-01-15 20:02:47.340065,0.20340420371554543
2023-01-15 20:02:47.360029,0.1822761317690727
2023-01-15 20:02:47.380096,0.19931165309822133
2023-01-15 20:02:47.400049,0.21295955704412137
2023-01-15 20:02:47.420074,0.18431896719509067
2023-01-15 20:02:47.440066,0.19044980781883028
2023-01-15 20:02:47.460033,0.20272200363056678
2023-01-15 20:02:47.480105,0.17478906138274036
2023-01-15 20:02:47.500051,0.19453898130104574
2023-01-15 20:02:47.520097,0.1863621916046411
2023-01-15 20:02:47.540066,0.18840580510883612
2023-01-15 20:03:10.940062,0.1435360180756139
2023-01-15 20:03:10.960027,0.12862107978896348
2023-01-15 20:03:10.980282,0.16662730451786906
2023-01-15 20:03:11.000039,0.16730721370074356
2023-01-15 20:03:11.020151,0.14150093905168643
2023-01-15 20:03:11.040204,0.15983058326023855
2023-01-15 20:03:11.060056,0.14285761543195497
2023-01-15 20:03:11.080098,0.13743194087339833
2023-01-15 20:03:11.100015,0.15100128436887894
2023-01-15 20:03:11.120012,0.12455697349201138
2023-01-15 20:03:11.140043,0.13607595169266967
2023-01-15 20:03:11.160029,0.14692867599249154
2023-01-15 20:03:11.180068,0.13539802149870728
2023-01-15 20:03:11.200017,0.1543963076788044
2023-01-15 20:03:11.220019,0.12929858091134191
2023-01-15 20:03:11.240036,0.16186914718871923
2023-01-15 20:03:11.260027,0.16186914718871923
2023-01-15 20:03:11.280105,0.13539802149870728
2023-01-15 20:03:11.300097,0.14421446369373303
2023-01-15 20:03:11.320018,0.12929858091134191
2023-01-15 20:03:11.340049,0.16118958279979007
2023-01-15 20:03:11.360025,0.1645878356343947
2023-01-15 20:03:11.38008,0.12320261431908154
2023-01-15 20:03:11.400019,0.16118958279979007
2023-01-15 20:03:11.420029,0.12184842655492757
2023-01-15 20:03:11.44004,0.13268672993707142
2023-01-15 20:03:11.460028,0.14828604009482954
2023-01-15 20:03:11.480071,0.12726620619439336
2023-01-15 20:03:11.500043,0.15235916460599774
2023-01-15 20:03:11.520008,0.13539802149870728
2023-01-15 20:03:11.540095,0.14014443452026934
2023-01-15 20:03:11.560025,0.14625005843569047
2023-01-15 20:03:11.580071,0.14692867599249154
2023-01-15 20:03:11.600681,0.13472013423024282
2023-01-15 20:03:11.62003,0.15915114810142364
2023-01-15 20:03:11.640045,0.14760733654417585
2023-01-15 20:03:11.660032,0.13607595169266967
2023-01-15 20:03:11.680133,0.14625005843569047
2023-01-15 20:03:11.700023,0.12997612492254543
2023-01-15 20:03:11.720014,0.14896478664853924
2023-01-15 20:03:11.740083,0.14014443452026934
2023-01-15 20:03:11.760025,0.12658883371405882
2023-01-15 20:03:11.78012,0.1754694882487593
2023-01-15 20:03:11.800014,0.174108677679562
2023-01-15 20:03:11.820037,0.13268672993707142
2023-01-15 20:03:11.840054,0.16118958279979007
2023-01-15 20:03:11.860031,0.13539802149870728
2023-01-15 20:03:11.88007,0.16051006149166203
2023-01-15 20:03:11.90002,0.15507544144400368
2023-01-15 20:03:11.920018,0.14489295229039612
2023-01-15 20:03:11.940047,0.15507544144400368
2023-01-15 20:03:11.960063,0.15779240698523814
2023-01-15 20:03:11.980062,0.13675392481620743
2023-01-15 20:03:12.000036,0.15779240698523814
2023-01-15 20:03:12.020006,0.13539802149870728
2023-01-15 20:03:12.040044,0.14285761543195497
2023-01-15 20:02:47.580326,0.19999363656610927
2023-01-15 20:02:47.60114,0.20476873389704023
2023-01-15 20:02:47.620224,0.187724557367839
2023-01-15 20:02:47.640483,0.18091445753217217
2023-01-15 20:02:47.660235,0.13607595169266967
2023-01-15 20:02:47.683083,0.17751102786493625
2023-01-15 20:02:47.700299,0.20476873389704023
2023-01-15 20:02:47.72012,0.20476873389704023
2023-01-15 20:02:47.739988,0.13743194087339833
2023-01-15 20:02:47.759813,0.14692867599249154
2023-01-15 20:02:47.77987,0.2006756633491607
2023-01-15 20:02:47.799788,0.20476873389704023
2023-01-15 20:02:47.82008,0.14150093905168643
2023-01-15 20:02:47.840079,0.18091445753217217
2023-01-15 20:02:47.860044,0.17751102786493625
2023-01-15 20:02:47.880264,0.18840580510883612
2023-01-15 20:02:47.900076,0.19658415229578782
2023-01-15 20:02:47.920092,0.17955295609457714
2023-01-15 20:02:47.940125,0.174108677679562
2023-01-15 20:02:47.960227,0.2068158542600748
2023-01-15 20:02:47.980107,0.18840580510883612
2023-01-15 20:02:48.000044,0.15983058326023855
2023-01-15 20:02:48.020057,0.19181269257251396
2023-01-15 20:02:48.040084,0.213642407599966
2023-01-15 20:02:48.060043,0.16118958279979007
2023-01-15 20:02:48.080179,0.1754694882487593
2023-01-15 20:02:48.100071,0.1727480397452997
2023-01-15 20:02:48.120123,0.17138757441312333
2023-01-15 20:02:48.140075,0.1856810735742072
2023-01-15 20:02:48.160036,0.1856810735742072
2023-01-15 20:02:48.180121,0.18295703369754324
2023-01-15 20:02:48.200039,0.1537172169534645
2023-01-15 20:02:48.220055,0.2006756633491607
2023-01-15 20:02:48.240065,0.16730721370074356
2023-01-15 20:02:48.260042,0.17002728165019204
2023-01-15 20:02:48.280102,0.17751102786493625
2023-01-15 20:02:48.300053,0.20886336483120688
2023-01-15 20:02:48.320051,0.18295703369754324
2023-01-15 20:02:48.340108,0.20135773345150254
2023-01-15 20:02:48.360037,0.20476873389704023
2023-01-15 20:02:48.380139,0.15575461825315406
2023-01-15 20:02:48.40007,0.20818081794415416
2023-01-15 20:02:48.420051,0.1822761317690727
2023-01-15 20:02:48.44007,0.18704335286781285
2023-01-15 20:02:48.460033,0.17683047148574899
2023-01-15 20:02:48.480099,0.19522066167829463
2023-01-15 20:02:48.500108,0.16254875466254637
2023-01-15 20:02:48.520059,0.18499999877239548
2023-01-15 20:02:48.540069,0.19044980781883028
2023-01-15 20:02:48.560065,0.18091445753217217
2023-01-15 20:02:48.580128,0.18840580510883612
2023-01-15 20:02:48.600038,0.19999363656610927
2023-01-15 20:02:48.620086,0.17070740646255425
2023-01-15 20:02:48.640059,0.174108677679562
2023-01-15 20:02:48.660035,0.19181269257251396
2023-01-15 20:02:48.680109,0.2095459550871121
2023-01-15 20:02:48.700053,0.16934719997193287
2023-01-15 20:02:48.720089,0.1822761317690727
2023-01-15 20:02:48.74008,0.18363797883817798
2023-01-15 20:02:48.760037,0.16730721370074356
2023-01-15 20:02:48.780112,0.19113122856489057
2023-01-15 20:02:48.800071,0.1822761317690727
2023-01-15 20:02:48.820046,0.16866716142367352
2023-01-15 20:02:48.840079,0.16594743844858642
2023-01-15 20:02:48.860031,0.19317575038893042
2023-01-15 20:02:48.880166,0.1822761317690727
2023-01-15 20:02:48.900053,0.187724557367839
2023-01-15 20:02:48.920044,0.18976843033021362
2023-01-15 20:02:48.940061,0.19249419984582047
2023-01-15 20:02:48.960037,0.1754694882487593
2023-01-15 20:02:48.980094,0.19862971294137066
2023-01-15 20:02:49.000029,0.19453898130104574
2023-01-15 20:02:49.020121,0.17683047148574899
2023-01-15 20:02:49.040073,0.19862971294137066
2023-01-15 20:02:49.060031,0.21432530155360946
2023-01-15 20:02:49.080327,0.20886336483120688
2023-01-15 20:02:49.100033,0.17070740646255425
2023-01-15 20:02:49.120047,0.17819162742339695
2023-01-15 20:02:49.140056,0.1720677855060035
2023-01-15 20:02:49.160032,0.18499999877239548
2023-01-15 20:02:49.180102,0.1979478160914316
2023-01-15 20:02:49.200041,0.18091445753217217
2023-01-15 20:02:49.220039,0.1802336852155173
2023-01-15 20:02:49.240051,0.1959023853418343
2023-01-15 20:02:49.260064,0.174108677679562
2023-01-15 20:02:49.280259,0.16390809888128582
2023-01-15 20:02:49.300038,0.20203984687726192
2023-01-15 20:02:49.320077,0.17683047148574899
2023-01-15 20:02:49.340057,0.174108677679562
2023-01-15 20:02:49.360046,0.19999363656610927
2023-01-15 20:02:49.380096,0.1761499582817262
2023-01-15 20:02:49.400049,0.16322840522536922
2023-01-15 20:02:49.42005,0.21569121967084254
2023-01-15 20:02:49.440061,0.1754694882487593
2023-01-15 20:02:49.460034,0.1754694882487593
2023-01-15 20:02:49.480105,0.2095459550871121
2023-01-15 20:02:49.500048,0.16662730451786906
2023-01-15 20:02:49.520216,0.1802336852155173
2023-01-15 20:02:49.540137,0.19113122856489057
2023-01-15 20:02:49.560034,0.20886336483120688
2023-01-15 20:02:49.580111,0.17070740646255425
2023-01-15 20:02:49.600037,0.1815952730486532
2023-01-15 20:02:49.620048,0.20135773345150254
2023-01-15 20:02:49.64006,0.16866716142367352
2023-01-15 20:02:49.660029,0.18976843033021362
2023-01-15 20:02:49.680122,0.20818081794415416
2023-01-15 20:02:49.70004,0.19113122856489057
2023-01-15 20:02:49.720076,0.17751102786493625
2023-01-15 20:02:49.740746,0.1863621916046411
2023-01-15 20:02:49.760053,0.19453898130104574
2023-01-15 20:02:49.780108,0.19317575038893042
2023-01-15 20:02:49.800043,0.18091445753217217
2023-01-15 20:02:49.820047,0.20476873389704023
2023-01-15 20:02:49.840179,0.16186914718871923
2023-01-15 20:02:49.860244,0.19249419984582047
2023-01-15 20:02:49.880103,0.18976843033021362
2023-01-15 20:02:49.900063,0.19249419984582047
2023-01-15 20:02:49.920086,0.17070740646255425
2023-01-15 20:02:49.940096,0.19113122856489057
2023-01-15 20:02:49.960037,0.20749831442182104
2023-01-15 20:02:49.980116,0.16934719997193287
2023-01-15 20:02:50.000082,0.18704335286781285
2023-01-15 20:02:50.020051,0.21569121967084254
2023-01-15 20:02:50.040057,0.19044980781883028
2023-01-15 20:02:50.060034,0.19113122856489057
2023-01-15 20:02:50.080166,0.18499999877239548
2023-01-15 20:02:50.10005,0.1537172169534645
2023-01-15 20:02:50.120047,0.19658415229578782
2023-01-15 20:02:50.140062,0.2068158542600748
2023-01-15 20:02:50.160032,0.17819162742339695
2023-01-15 20:02:50.180138,0.19249419984582047
2023-01-15 20:02:50.20004,0.187724557367839
2023-01-15 20:02:50.220049,0.1564338381103479
2023-01-15 20:02:50.240216,0.14625005843569047
2023-01-15 20:02:50.260236,0.174108677679562
2023-01-15 20:02:50.280099,0.1822761317690727
2023-01-15 20:02:50.300041,0.1727480397452997
2023-01-15 20:02:50.320047,0.21569121967084254
2023-01-15 20:02:50.340057,0.16594743844858642
2023-01-15 20:02:50.360083,0.18499999877239548
2023-01-15 20:02:50.38011,0.2006756633491607
2023-01-15 20:02:50.400064,0.1543963076788044
2023-01-15 20:02:50.420051,0.15711310101967813
2023-01-15 20:02:50.440064,0.17683047148574899
2023-01-15 20:02:50.460066,0.17070740646255425
2023-01-15 20:02:50.480092,0.16594743844858642
2023-01-15 20:02:50.500035,0.20613343745478352
2023-01-15 20:02:50.520062,0.19385734420596504
2023-01-15 20:02:50.54006,0.18295703369754324
2023-01-15 20:02:50.560031,0.20272200363056678
2023-01-15 20:02:50.580106,0.1856810735742072
2023-01-15 20:02:50.600035,0.19044980781883028
2023-01-15 20:02:50.620317,0.19453898130104574
2023-01-15 20:02:50.640148,0.14896478664853924
2023-01-15 20:02:50.660067,0.1856810735742072
2023-01-15 20:02:50.68013,0.18976843033021362
2023-01-15 20:02:50.700043,0.2677250793085484
2023-01-15 20:02:50.720045,0.19249419984582047
2023-01-15 20:02:50.740084,0.1822761317690727
2023-01-15 20:02:50.760037,0.27321698797037863
2023-01-15 20:02:50.780112,0.17887227016524054
2023-01-15 20:02:50.80015,0.24236137028090773
2023-01-15 20:02:50.820058,0.2800858124236399
2023-01-15 20:02:50.840067,0.20476873389704023
2023-01-15 20:02:50.860106,0.23756954723896004
2023-01-15 20:02:50.880095,0.2588066954191338
2023-01-15 20:02:50.900069,0.25400754633328565
2023-01-15 20:02:50.920061,0.2498956920974781
2023-01-15 20:02:50.940058,0.27527717563891924
2023-01-15 20:02:50.960033,0.2780247053616232
2023-01-15 20:02:50.9801,0.26360798443265165
2023-01-15 20:02:51.000037,0.22457392140872046
2023-01-15 20:02:51.020127,0.26841141480544056
2023-01-15 20:02:51.040084,0.27733775725789334
2023-01-15 20:02:51.060038,0.2464703464287223
2023-01-15 20:02:51.080094,0.213642407599966
2023-01-15 20:02:51.100074,0.26223596912822894
2023-01-15 20:02:51.120069,0.23688517529502975
2023-01-15 20:02:51.140059,0.17955295609457714
2023-01-15 20:02:51.160036,0.213642407599966
2023-01-15 20:02:51.180106,0.1815952730486532
2023-01-15 20:02:51.200036,0.18840580510883612
2023-01-15 20:02:51.220041,0.19999363656610927
2023-01-15 20:02:51.240052,0.18363797883817798
2023-01-15 20:02:51.260028,0.16254875466254637
2023-01-15 20:02:51.280187,0.23072778654548828
2023-01-15 20:02:51.300054,0.1727480397452997
2023-01-15 20:02:51.320091,0.16594743844858642
2023-01-15 20:02:51.34007,0.1863621916046411
2023-01-15 20:02:51.360043,0.17138757441312333
2023-01-15 20:02:51.380103,0.19044980781883028
2023-01-15 20:02:51.400045,0.1822761317690727
2023-01-15 20:02:51.41982,0.20203984687726192
2023-01-15 20:02:51.439818,0.2095459550871121
2023-01-15 20:02:51.460013,0.20749831442182104
2023-01-15 20:02:51.479893,0.20340420371554543
2023-01-15 20:02:51.500119,0.20272200363056678
2023-01-15 20:02:51.520129,0.20545106400181562
2023-01-15 20:02:51.540204,0.20613343745478352
2023-01-15 20:02:51.560334,0.17887227016524054
2023-01-15 20:02:51.580067,0.18840580510883612
2023-01-15 20:02:51.599944,0.21091126572201527
2023-01-15 20:02:51.619869,0.2615500270173909
2023-01-15 20:02:51.639881,0.174108677679562
2023-01-15 20:02:51.659829,0.22525751029017263
2023-01-15 20:02:51.679974,0.18704335286781285
2023-01-15 20:02:51.699844,0.2068158542600748
2023-01-15 20:02:51.719861,0.21637424384270823
2023-01-15 20:02:51.73986,0.271157194139307
2023-01-15 20:02:51.759822,0.2615500270173909
2023-01-15 20:02:51.779956,0.2334639685737197
2023-01-15 20:02:51.799833,0.2553785135098436
2023-01-15 20:02:51.819779,0.2232068740338463
2023-01-15 20:02:51.839813,0.20476873389704023
2023-01-15 20:02:51.859788,0.2526367537279315
2023-01-15 20:02:51.87986,0.213642407599966
2023-01-15 20:02:51.899786,0.20272200363056678
2023-01-15 20:02:51.919914,0.221840000482047
2023-01-15 20:02:51.939866,0.26978421699475413
2023-01-15 20:02:51.959825,0.2068158542600748
2023-01-15 20:02:51.979928,0.20272200363056678
2023-01-15 20:02:51.99983,0.22730853776033932
2023-01-15 20:02:52.019824,0.1959023853418343
2023-01-15 20:02:52.039785,0.1856810735742072
2023-01-15 20:02:52.059763,0.20135773345150254
2023-01-15 20:02:52.079872,0.15779240698523814
2023-01-15 20:02:52.099772,0.19453898130104574
2023-01-15 20:02:52.119838,0.20476873389704023
2023-01-15 20:02:52.139853,0.20135773345150254
2023-01-15 20:02:52.159814,0.19999363656610927
2023-01-15 20:02:52.179931,0.19317575038893042
2023-01-15 20:02:52.199827,0.19385734420596504
2023-01-15 20:02:52.219783,0.17478906138274036
2023-01-15 20:02:52.239786,0.20203984687726192
2023-01-15 20:02:52.259761,0.19453898130104574
2023-01-15 20:02:52.27988,0.19522066167829463
2023-01-15 20:02:52.299774,0.19113122856489057
2023-01-15 20:02:52.319863,0.21432530155360946
2023-01-15 20:02:52.339852,0.1727480397452997
2023-01-15 20:02:52.359818,0.17819162742339695
2023-01-15 20:02:52.379915,0.22799230053948746
2023-01-15 20:02:52.39985,0.17070740646255425
2023-01-15 20:02:52.419792,0.19862971294137066
2023-01-15 20:02:52.439795,0.20749831442182104
2023-01-15 20:02:52.459784,0.2040864471363268
2023-01-15 20:02:52.479904,0.19999363656610927
2023-01-15 20:02:52.499768,0.23620084688986123
2023-01-15 20:02:52.519864,0.1734283371351172
2023-01-15 20:02:52.539855,0.17683047148574899
2023-01-15 20:02:52.559817,0.2095459550871121
2023-01-15 20:02:52.579916,0.18499999877239548
2023-01-15 20:02:52.599821,0.18704335286781285
2023-01-15 20:02:52.619787,0.1959023853418343
2023-01-15 20:02:52.63983,0.21842357686096975
2023-01-15 20:02:52.659768,0.17138757441312333
2023-01-15 20:02:52.679878,0.217057311428925
2023-01-15 20:02:52.699774,0.22457392140872046
2023-01-15 20:02:52.719824,0.15847175601112184
2023-01-15 20:02:52.739867,0.21637424384270823
2023-01-15 20:02:52.759813,0.1979478160914316
2023-01-15 20:02:52.779914,0.16662730451786906
2023-01-15 20:02:52.799826,0.21022858871600358
2023-01-15 20:02:52.819791,0.19317575038893042
2023-01-15 20:02:52.839839,0.14625005843569047
2023-01-15 20:02:52.859808,0.1815952730486532
2023-01-15 20:02:52.879882,0.2232068740338463
2023-01-15 20:02:52.899786,0.2006756633491607
2023-01-15 20:02:52.919849,0.1822761317690727
2023-01-15 20:02:52.939896,0.21569121967084254
2023-01-15 20:02:52.959975,0.1564338381103479
2023-01-15 20:02:52.979974,0.21295955704412137
2023-01-15 20:02:52.999837,0.248525423005722
2023-01-15 20:02:53.019908,0.17070740646255425
2023-01-15 20:02:53.039808,0.16118958279979007
2023-01-15 20:02:53.059763,0.1822761317690727
2023-01-15 20:02:53.079855,0.2191067747150782
2023-01-15 20:02:53.099772,0.16662730451786906
2023-01-15 20:02:53.11982,0.2115939861092819
2023-01-15 20:02:53.139851,0.21637424384270823
2023-01-15 20:02:53.159835,0.16051006149166203
2023-01-15 20:02:53.179916,0.21295955704412137
2023-01-15 20:02:53.199823,0.21979001600009837
2023-01-15 20:02:53.219818,0.20545106400181562
2023-01-15 20:02:53.239787,0.22047330072017177
2023-01-15 20:02:53.259765,0.1645878356343947
2023-01-15 20:02:53.279849,0.20135773345150254
2023-01-15 20:02:53.299768,0.213642407599966
2023-01-15 20:02:53.320001,0.16051006149166203
2023-01-15 20:02:53.339866,0.20135773345150254
2023-01-15 20:02:53.35984,0.19317575038893042
2023-01-15 20:02:53.379922,0.19522066167829463
2023-01-15 20:02:53.399935,0.19999363656610927
2023-01-15 20:02:53.419908,0.19385734420596504
2023-01-15 20:02:53.439846,0.21979001600009837
2023-01-15 20:02:53.45976,0.16051006149166203
2023-01-15 20:02:53.479904,0.2068158542600748
2023-01-15 20:02:53.499774,0.22047330072017177
2023-01-15 20:02:53.519849,0.21227674988193876
2023-01-15 20:02:53.539872,0.20272200363056678
2023-01-15 20:02:53.559821,0.23004384980227915
2023-01-15 20:02:53.579926,0.21091126572201527
2023-01-15 20:02:53.599822,0.2232068740338463
2023-01-15 20:02:53.619994,0.2095459550871121
2023-01-15 20:02:53.640085,0.2232068740338463
2023-01-15 20:02:53.659993,0.2519514228790363
2023-01-15 20:02:53.679891,0.2040864471363268
2023-01-15 20:02:53.69978,0.1959023853418343
2023-01-15 20:02:53.719823,0.19658415229578782
2023-01-15 20:02:53.739881,0.19726596254427886
2023-01-15 20:02:53.759823,0.20545106400181562
2023-01-15 20:02:53.779931,0.2232068740338463
2023-01-15 20:02:53.799826,0.17138757441312333
2023-01-15 20:02:53.819828,0.1815952730486532
2023-01-15 20:02:53.839797,0.23209579054022336
2023-01-15 20:02:53.8598,0.20749831442182104
2023-01-15 20:02:53.87986,0.20886336483120688
2023-01-15 20:02:53.899806,0.187724557367839
2023-01-15 20:02:53.919788,0.15575461825315406
2023-01-15 20:02:53.940014,0.22730853776033932
2023-01-15 20:02:53.959959,0.2115939861092819
2023-01-15 20:02:53.980046,0.19862971294137066
2023-01-15 20:02:53.999963,0.22525751029017263
2023-01-15 20:02:54.019955,0.20476873389704023
2023-01-15 20:02:54.040069,0.19931165309822133
2023-01-15 20:02:54.06003,0.21091126572201527
2023-01-15 20:02:54.080179,0.18295703369754324
2023-01-15 20:02:54.100041,0.19317575038893042
2023-01-15 20:02:54.120054,0.21637424384270823
2023-01-15 20:02:54.140061,0.20613343745478352
2023-01-15 20:02:54.160042,0.19862971294137066
2023-01-15 20:02:54.180091,0.213642407599966
2023-01-15 20:02:54.200035,0.19931165309822133
2023-01-15 20:02:54.220022,0.21842357686096975
2023-01-15 20:02:54.240056,0.2191067747150782
2023-01-15 20:02:54.260029,0.20749831442182104
2023-01-15 20:02:54.280089,0.1979478160914316
2023-01-15 20:02:54.300055,0.19317575038893042
2023-01-15 20:02:54.320022,0.1959023853418343
2023-01-15 20:02:54.340077,0.2389384217597276
2023-01-15 20:02:54.360026,0.19385734420596504
2023-01-15 20:02:54.380084,0.23004384980227915
2023-01-15 20:02:54.400045,0.2225234155321344
2023-01-15 20:02:54.420071,0.19862971294137066
2023-01-15 20:02:54.440071,0.22389037599132675
2023-01-15 20:02:54.460032,0.20613343745478352
2023-01-15 20:02:54.48009,0.20886336483120688
2023-01-15 20:02:54.500036,0.21432530155360946
2023-01-15 20:02:54.520024,0.19044980781883028
2023-01-15 20:02:54.5401,0.19317575038893042
2023-01-15 20:02:54.560026,0.2191067747150782
2023-01-15 20:02:54.580197,0.2068158542600748
2023-01-15 20:02:54.600043,0.21432530155360946
2023-01-15 20:02:54.620028,0.23551656201929977
2023-01-15 20:02:54.640061,0.217057311428925
2023-01-15 20:02:54.660024,0.2232068740338463
