2023-01-15 19:44:56.799785,0.23962292434487686
2023-01-15 19:44:56.891977,0.2334639685737197
2023-01-15 19:44:56.991942,0.16730721370074356
2023-01-15 19:44:57.091902,0.21637424384270823
2023-01-15 19:44:57.191911,0.2177404224336322
2023-01-15 19:44:57.291877,0.2232068740338463
2023-01-15 19:44:57.391917,0.23688517529502975
2023-01-15 19:44:57.492155,0.19658415229578782
2023-01-15 19:44:57.592127,0.21842357686096975
2023-01-15 19:44:57.692117,0.23072778654548828
2023-01-15 19:44:57.792186,0.19453898130104574
2023-01-15 19:44:57.892394,0.18431896719509067
2023-01-15 19:44:57.992223,0.17751102786493625
2023-01-15 19:44:58.092136,0.19044980781883028
2023-01-15 19:44:58.192109,0.2437308546643992
2023-01-15 19:44:58.292174,0.21842357686096975
2023-01-15 19:44:58.392109,0.19862971294137066
2023-01-15 19:44:58.492268,0.19658415229578782
2023-01-15 19:44:58.592145,0.213642407599966
2023-01-15 19:44:58.692128,0.24715532835185564
2023-01-15 19:44:58.792415,0.20818081794415416
2023-01-15 19:44:58.892229,0.22115662887944043
2023-01-15 19:44:58.992403,0.221840000482047
2023-01-15 19:44:59.0925,0.21227674988193876
2023-01-15 19:44:59.192482,0.20340420371554543
2023-01-15 19:44:59.292461,0.2095459550871121
2023-01-15 19:44:59.392457,0.22525751029017263
2023-01-15 19:44:59.492409,0.2177404224336322
2023-01-15 19:44:59.592401,0.22662481846183558
2023-01-15 19:44:59.69244,0.2068158542600748
2023-01-15 19:44:59.792448,0.25126613566043987
2023-01-15 19:44:59.892436,0.22457392140872046
2023-01-15 19:44:59.99244,0.21979001600009837
2023-01-15 19:45:00.092404,0.1959023853418343
2023-01-15 19:45:00.192437,0.21295955704412137
2023-01-15 19:45:00.292584,0.2177404224336322
2023-01-15 19:45:00.39248,0.2068158542600748
2023-01-15 19:45:00.492435,0.221840000482047
2023-01-15 19:45:00.592406,0.22525751029017263
2023-01-15 19:45:00.692521,0.22525751029017263
2023-01-15 19:45:00.792531,0.20818081794415416
2023-01-15 19:45:00.892468,0.21091126572201527
2023-01-15 19:45:00.992536,0.2068158542600748
2023-01-15 19:45:01.092283,0.2191067747150782
2023-01-15 19:45:01.192514,0.21432530155360946
2023-01-15 19:45:01.292431,0.22047330072017177
2023-01-15 19:45:01.392456,0.20818081794415416
2023-01-15 19:45:01.492439,0.1959023853418343
2023-01-15 19:45:01.592496,0.19999363656610927
2023-01-15 19:45:01.692449,0.20135773345150254
2023-01-15 19:45:01.797759,0.23483232067919144
2023-01-15 19:45:01.892161,0.19453898130104574
2023-01-15 19:45:01.992404,0.2115939861092819
2023-01-15 19:45:02.092401,0.20818081794415416
2023-01-15 19:45:02.192448,0.1979478160914316
2023-01-15 19:45:02.292359,0.1890870960949217
2023-01-15 19:45:02.39234,0.19726596254427886
2023-01-15 19:45:02.492429,0.1890870960949217
2023-01-15 19:45:02.592404,0.2095459550871121
2023-01-15 19:45:02.692448,0.20340420371554543
2023-01-15 19:45:02.792429,0.17751102786493625
2023-01-15 19:45:02.892358,0.19181269257251396
2023-01-15 19:45:02.992511,0.174108677679562
2023-01-15 19:45:03.092409,0.19522066167829463
2023-01-15 19:45:03.192508,0.1734283371351172
2023-01-15 19:45:03.292649,0.1863621916046411
2023-01-15 19:45:03.392301,0.20272200363056678
2023-01-15 19:45:03.492427,0.1815952730486532
2023-01-15 19:45:03.592444,0.17887227016524054
2023-01-15 19:45:03.692461,0.2006756633491607
2023-01-15 19:45:03.792431,0.17887227016524054
2023-01-15 19:45:03.89252,0.18840580510883612
2023-01-15 19:45:03.992206,0.20886336483120688
2023-01-15 19:45:04.092367,0.1761499582817262
2023-01-15 19:45:04.192499,0.1863621916046411
2023-01-15 19:45:04.29248,0.15983058326023855
2023-01-15 19:45:04.392428,0.16662730451786906
2023-01-15 19:45:04.492449,0.16730721370074356
2023-01-15 19:45:04.592568,0.2006756633491607
2023-01-15 19:45:04.692451,0.1754694882487593
2023-01-15 19:45:04.792412,0.20545106400181562
2023-01-15 19:45:04.892463,0.19249419984582047
2023-01-15 19:45:04.992464,0.1822761317690727
2023-01-15 19:45:05.092466,0.19862971294137066
2023-01-15 19:45:05.192451,0.1959023853418343
2023-01-15 19:45:05.292448,0.17751102786493625
2023-01-15 19:45:05.3924,0.20476873389704023
2023-01-15 19:45:05.492538,0.18704335286781285
2023-01-15 19:45:05.592429,0.18499999877239548
2023-01-15 19:45:05.692453,0.21637424384270823
2023-01-15 19:45:05.792482,0.1727480397452997
2023-01-15 19:45:05.892443,0.21022858871600358
2023-01-15 19:45:05.992467,0.2115939861092819
2023-01-15 19:45:06.092474,0.19931165309822133
2023-01-15 19:45:06.192489,0.20749831442182104
2023-01-15 19:45:06.292406,0.17955295609457714
2023-01-15 19:45:06.392416,0.19931165309822133
2023-01-15 19:45:06.492455,0.1720677855060035
2023-01-15 19:45:06.592463,0.19317575038893042
2023-01-15 19:45:06.692422,0.1979478160914316
2023-01-15 19:45:06.892716,0.18976843033021362
2023-01-15 19:45:06.993278,0.21227674988193876
2023-01-15 19:45:07.091982,0.19113122856489057
2023-01-15 19:45:07.191967,0.18363797883817798
2023-01-15 19:45:07.291904,0.19931165309822133
2023-01-15 19:45:07.391901,0.21295955704412137
2023-01-15 19:45:07.491884,0.17683047148574899
2023-01-15 19:45:07.591979,0.213642407599966
2023-01-15 19:45:07.692393,0.1890870960949217
2023-01-15 19:45:07.792504,0.19999363656610927
2023-01-15 19:45:07.892446,0.1863621916046411
2023-01-15 19:45:07.992504,0.213642407599966
2023-01-15 19:45:08.092497,0.21569121967084254
2023-01-15 19:45:08.192493,0.19385734420596504
2023-01-15 19:45:08.292449,0.2115939861092819
2023-01-15 19:45:08.392442,0.17819162742339695
2023-01-15 19:45:08.492481,0.217057311428925
2023-01-15 19:45:08.59244,0.1979478160914316
2023-01-15 19:45:08.692439,0.2095459550871121
2023-01-15 19:45:08.792435,0.20476873389704023
2023-01-15 19:45:08.892484,0.18704335286781285
2023-01-15 19:45:08.992258,0.1822761317690727
2023-01-15 19:45:09.092155,0.1959023853418343
2023-01-15 19:45:09.192118,0.19522066167829463
2023-01-15 19:45:09.292094,0.20476873389704023
2023-01-15 19:45:09.392046,0.19726596254427886
2023-01-15 19:45:09.492071,0.17751102786493625
2023-01-15 19:45:09.592076,0.1959023853418343
2023-01-15 19:45:09.692099,0.20749831442182104
2023-01-15 19:45:09.792045,0.20340420371554543
2023-01-15 19:45:09.892166,0.22457392140872046
2023-01-15 19:45:09.992174,0.19726596254427886
2023-01-15 19:45:10.09223,0.1822761317690727
2023-01-15 19:45:10.192198,0.18431896719509067
2023-01-15 19:45:10.292266,0.17002728165019204
2023-01-15 19:45:10.392092,0.20613343745478352
2023-01-15 19:45:10.492174,0.2068158542600748
2023-01-15 19:45:10.592063,0.18431896719509067
2023-01-15 19:45:10.692116,0.19385734420596504
2023-01-15 19:45:10.792093,0.20613343745478352
2023-01-15 19:45:10.892089,0.20886336483120688
2023-01-15 19:45:10.992058,0.17887227016524054
2023-01-15 19:45:11.092055,0.19385734420596504
2023-01-15 19:45:11.192047,0.18431896719509067
2023-01-15 19:45:11.292093,0.16118958279979007
2023-01-15 19:45:11.392058,0.1856810735742072
2023-01-15 19:45:11.492048,0.16390809888128582
2023-01-15 19:45:11.592322,0.1856810735742072
2023-01-15 19:45:11.692445,0.18431896719509067
2023-01-15 19:45:11.792411,0.17478906138274036
2023-01-15 19:45:11.892395,0.17819162742339695
2023-01-15 19:45:11.992395,0.17683047148574899
2023-01-15 19:45:12.09241,0.19317575038893042
2023-01-15 19:45:12.192419,0.19113122856489057
2023-01-15 19:45:12.292397,0.18363797883817798
2023-01-15 19:45:12.392472,0.20476873389704023
2023-01-15 19:45:12.492398,0.18431896719509067
2023-01-15 19:45:12.592427,0.18431896719509067
2023-01-15 19:45:12.692494,0.1959023853418343
2023-01-15 19:45:12.792354,0.21569121967084254
2023-01-15 19:45:12.892402,0.18499999877239548
2023-01-15 19:45:12.992514,0.19385734420596504
2023-01-15 19:45:13.092431,0.1863621916046411
2023-01-15 19:45:13.192431,0.1863621916046411
2023-01-15 19:45:13.292434,0.19931165309822133
2023-01-15 19:45:13.392458,0.21979001600009837
2023-01-15 19:45:13.492958,0.2115939861092819
2023-01-15 19:45:13.592281,0.1863621916046411
2023-01-15 19:45:13.692254,0.1822761317690727
2023-01-15 19:45:13.792434,0.16594743844858642
2023-01-15 19:45:13.892393,0.17070740646255425
2023-01-15 19:45:13.992501,0.187724557367839
2023-01-15 19:45:14.09242,0.19453898130104574
2023-01-15 19:45:14.192455,0.19522066167829463
2023-01-15 19:45:14.292406,0.21022858871600358
2023-01-15 19:45:14.392386,0.174108677679562
2023-01-15 19:45:14.492477,0.19385734420596504
2023-01-15 19:45:14.592428,0.1863621916046411
2023-01-15 19:45:14.692435,0.1822761317690727
2023-01-15 19:45:14.792415,0.187724557367839
2023-01-15 19:45:14.892389,0.1890870960949217
2023-01-15 19:45:14.992387,0.19249419984582047
2023-01-15 19:45:15.092417,0.19044980781883028
2023-01-15 19:45:15.192417,0.21022858871600358
2023-01-15 19:45:15.292387,0.20272200363056678
2023-01-15 19:45:15.392415,0.1856810735742072
2023-01-15 19:45:15.492411,0.18431896719509067
2023-01-15 19:45:15.592426,0.19999363656610927
2023-01-15 19:45:15.69243,0.1959023853418343
2023-01-15 19:45:15.792402,0.2040864471363268
2023-01-15 19:45:15.892393,0.17002728165019204
2023-01-15 19:45:15.992398,0.19385734420596504
2023-01-15 19:45:16.092414,0.1979478160914316
2023-01-15 19:45:16.192423,0.16662730451786906
2023-01-15 19:45:16.292451,0.1802336852155173
2023-01-15 19:45:16.392414,0.20476873389704023
2023-01-15 19:45:16.492407,0.19453898130104574
2023-01-15 19:45:16.592459,0.1645878356343947
2023-01-15 19:45:16.692455,0.18431896719509067
2023-01-15 19:45:16.896621,0.22115662887944043
2023-01-15 19:45:16.992023,0.22047330072017177
2023-01-15 19:45:17.091989,0.18840580510883612
2023-01-15 19:45:17.191945,0.19522066167829463
2023-01-15 19:45:17.291901,0.2115939861092819
2023-01-15 19:45:17.391907,0.213642407599966
2023-01-15 19:45:17.491935,0.1645878356343947
2023-01-15 19:45:17.591912,0.1979478160914316
2023-01-15 19:45:17.692521,0.18976843033021362
2023-01-15 19:45:17.79241,0.1822761317690727
2023-01-15 19:45:17.892547,0.18363797883817798
2023-01-15 19:45:17.992533,0.1856810735742072
2023-01-15 19:45:18.092491,0.18363797883817798
2023-01-15 19:45:18.192434,0.18091445753217217
2023-01-15 19:45:18.29246,0.1856810735742072
2023-01-15 19:45:18.392466,0.1754694882487593
2023-01-15 19:45:18.492491,0.18091445753217217
2023-01-15 19:45:18.592488,0.19726596254427886
2023-01-15 19:45:18.69243,0.1761499582817262
2023-01-15 19:45:18.792396,0.17002728165019204
2023-01-15 19:45:18.892472,0.19249419984582047
2023-01-15 19:45:18.992509,0.18431896719509067
2023-01-15 19:45:19.092494,0.187724557367839
2023-01-15 19:45:19.192434,0.18704335286781285
2023-01-15 19:45:19.292415,0.18499999877239548
2023-01-15 19:45:19.392407,0.18431896719509067
2023-01-15 19:45:19.492459,0.19453898130104574
2023-01-15 19:45:19.592458,0.18976843033021362
2023-01-15 19:45:19.692447,0.18704335286781285
2023-01-15 19:45:19.79247,0.20340420371554543
2023-01-15 19:45:19.892455,0.15847175601112184
2023-01-15 19:45:19.992409,0.16934719997193287
2023-01-15 19:45:20.092397,0.18363797883817798
2023-01-15 19:45:20.192485,0.1754694882487593
2023-01-15 19:45:20.292507,0.1890870960949217
2023-01-15 19:45:20.392455,0.18431896719509067
2023-01-15 19:45:20.492432,0.19385734420596504
2023-01-15 19:45:20.592414,0.19249419984582047
2023-01-15 19:45:20.692601,0.16526761548879507
2023-01-15 19:45:20.792487,0.174108677679562
2023-01-15 19:45:20.892455,0.17002728165019204
2023-01-15 19:45:20.992441,0.19044980781883028
2023-01-15 19:45:21.09246,0.1727480397452997
2023-01-15 19:45:21.19244,0.18704335286781285
2023-01-15 19:45:21.292536,0.1890870960949217
2023-01-15 19:45:21.392475,0.16730721370074356
2023-01-15 19:45:21.492514,0.18499999877239548
2023-01-15 19:45:21.592428,0.1530381692638925
2023-01-15 19:45:21.69243,0.19044980781883028
2023-01-15 19:45:21.792206,0.19862971294137066
2023-01-15 19:45:21.892018,0.15168020297568977
2023-01-15 19:45:21.992034,0.19999363656610927
2023-01-15 19:45:22.092104,0.17751102786493625
2023-01-15 19:45:22.192053,0.2040864471363268
2023-01-15 19:45:22.292107,0.16662730451786906
2023-01-15 19:45:22.392016,0.19044980781883028
2023-01-15 19:45:22.49222,0.17138757441312333
2023-01-15 19:45:22.592085,0.19658415229578782
2023-01-15 19:45:22.692252,0.21091126572201527
2023-01-15 19:45:22.792096,0.20476873389704023
2023-01-15 19:45:22.8921,0.17751102786493625
2023-01-15 19:45:22.992138,0.16254875466254637
2023-01-15 19:45:23.092107,0.15983058326023855
2023-01-15 19:45:23.192058,0.14217925575867332
2023-01-15 19:45:23.292085,0.17478906138274036
2023-01-15 19:45:23.392012,0.1761499582817262
2023-01-15 19:45:23.492089,0.1727480397452997
2023-01-15 19:45:23.592036,0.15983058326023855
2023-01-15 19:45:23.692109,0.2006756633491607
2023-01-15 19:45:23.79205,0.187724557367839
2023-01-15 19:45:23.892176,0.14150093905168643
2023-01-15 19:45:23.992121,0.18363797883817798
2023-01-15 19:45:24.092103,0.15983058326023855
2023-01-15 19:45:24.192071,0.2115939861092819
2023-01-15 19:45:24.292044,0.18431896719509067
2023-01-15 19:45:24.392439,0.1543963076788044
2023-01-15 19:45:24.492424,0.17955295609457714
2023-01-15 19:45:24.592392,0.1530381692638925
2023-01-15 19:45:24.69253,0.15235916460599774
2023-01-15 19:45:24.79244,0.19931165309822133
2023-01-15 19:45:24.892451,0.1543963076788044
2023-01-15 19:45:24.992472,0.15711310101967813
2023-01-15 19:45:25.092422,0.1734283371351172
2023-01-15 19:45:25.192476,0.174108677679562
2023-01-15 19:45:25.292455,0.18363797883817798
2023-01-15 19:45:25.392424,0.16934719997193287
2023-01-15 19:45:25.492461,0.17887227016524054
2023-01-15 19:45:25.592528,0.15507544144400368
2023-01-15 19:45:25.692487,0.19317575038893042
2023-01-15 19:45:25.792421,0.17751102786493625
2023-01-15 19:45:25.892419,0.18091445753217217
2023-01-15 19:45:25.99237,0.19044980781883028
2023-01-15 19:45:26.092426,0.16594743844858642
2023-01-15 19:45:26.192426,0.1754694882487593
2023-01-15 19:45:26.292381,0.1822761317690727
2023-01-15 19:45:26.392367,0.17138757441312333
2023-01-15 19:45:26.49241,0.18431896719509067
2023-01-15 19:45:26.592482,0.19385734420596504
2023-01-15 19:45:26.692411,0.174108677679562
2023-01-15 19:45:26.895437,0.19726596254427886
2023-01-15 19:45:26.99197,0.18976843033021362
2023-01-15 19:45:27.091981,0.16730721370074356
2023-01-15 19:45:27.191944,0.18363797883817798
2023-01-15 19:45:27.291884,0.20203984687726192
2023-01-15 19:45:27.391883,0.15032240878147599
2023-01-15 19:45:27.491894,0.17819162742339695
2023-01-15 19:45:27.591942,0.1979478160914316
2023-01-15 19:45:27.692471,0.16866716142367352
2023-01-15 19:45:27.792324,0.19181269257251396
2023-01-15 19:45:27.892445,0.16322840522536922
2023-01-15 19:45:27.992565,0.14896478664853924
2023-01-15 19:45:28.092419,0.16118958279979007
2023-01-15 19:45:28.192464,0.15847175601112184
2023-01-15 19:45:28.292472,0.14692867599249154
2023-01-15 19:45:28.392438,0.1564338381103479
2023-01-15 19:45:28.492434,0.18431896719509067
2023-01-15 19:45:28.592466,0.1727480397452997
2023-01-15 19:45:28.692427,0.17070740646255425
2023-01-15 19:45:28.792458,0.15983058326023855
2023-01-15 19:45:28.892452,0.17887227016524054
2023-01-15 19:45:28.992514,0.15847175601112184
2023-01-15 19:45:29.092449,0.14964357620939217
2023-01-15 19:45:29.192453,0.19385734420596504
2023-01-15 19:45:29.29248,0.15507544144400368
2023-01-15 19:45:29.392438,0.16866716142367352
2023-01-15 19:45:29.492451,0.174108677679562
2023-01-15 19:45:29.592554,0.1761499582817262
2023-01-15 19:45:29.692441,0.16186914718871923
2023-01-15 19:45:29.792447,0.15915114810142364
2023-01-15 19:45:29.892436,0.16051006149166203
2023-01-15 19:45:29.992493,0.16118958279979007
2023-01-15 19:45:30.092439,0.16730721370074356
2023-01-15 19:45:30.192446,0.16390809888128582
2023-01-15 19:45:30.292494,0.18363797883817798
2023-01-15 19:45:30.392479,0.17138757441312333
2023-01-15 19:45:30.492506,0.14760733654417585
2023-01-15 19:45:30.5924,0.16866716142367352
2023-01-15 19:45:30.692493,0.16254875466254637
2023-01-15 19:45:30.792484,0.16390809888128582
2023-01-15 19:45:30.892421,0.17070740646255425
2023-01-15 19:45:30.992419,0.18704335286781285
2023-01-15 19:45:31.092443,0.1537172169534645
2023-01-15 19:45:31.192484,0.16594743844858642
2023-01-15 19:45:31.292412,0.17955295609457714
2023-01-15 19:45:31.392416,0.15983058326023855
2023-01-15 19:45:31.492433,0.17683047148574899
2023-01-15 19:45:31.592463,0.1537172169534645
2023-01-15 19:45:31.69246,0.15779240698523814
2023-01-15 19:45:31.792415,0.174108677679562
2023-01-15 19:45:31.892451,0.16051006149166203
2023-01-15 19:45:31.992414,0.17887227016524054
2023-01-15 19:45:32.092432,0.16866716142367352
2023-01-15 19:45:32.192432,0.15235916460599774
2023-01-15 19:45:32.292423,0.17955295609457714
2023-01-15 19:45:32.392448,0.17751102786493625
2023-01-15 19:45:32.492413,0.16186914718871923
2023-01-15 19:45:32.59244,0.1863621916046411
2023-01-15 19:45:32.692428,0.1530381692638925
2023-01-15 19:45:32.792452,0.16934719997193287
2023-01-15 19:45:32.892457,0.14828604009482954
2023-01-15 19:45:32.992406,0.16118958279979007
2023-01-15 19:45:33.092457,0.174108677679562
2023-01-15 19:45:33.192464,0.15711310101967813
2023-01-15 19:45:33.292417,0.13404228988319947
2023-01-15 19:45:33.392414,0.15507544144400368
2023-01-15 19:45:33.492188,0.16322840522536922
2023-01-15 19:45:33.59247,0.15915114810142364
2023-01-15 19:45:33.692437,0.19453898130104574
2023-01-15 19:45:33.792423,0.20272200363056678
2023-01-15 19:45:33.892417,0.17478906138274036
2023-01-15 19:45:33.992498,0.1761499582817262
2023-01-15 19:45:34.092455,0.19113122856489057
2023-01-15 19:45:34.192447,0.1761499582817262
2023-01-15 19:45:34.29241,0.1720677855060035
2023-01-15 19:45:34.392426,0.1727480397452997
2023-01-15 19:45:34.492454,0.174108677679562
2023-01-15 19:45:34.592138,0.19658415229578782
2023-01-15 19:45:34.692071,0.19453898130104574
2023-01-15 19:45:34.792084,0.16934719997193287
2023-01-15 19:45:34.892007,0.17683047148574899
2023-01-15 19:45:34.99218,0.20749831442182104
2023-01-15 19:45:35.092224,0.19658415229578782
2023-01-15 19:45:35.192095,0.21842357686096975
2023-01-15 19:45:35.292115,0.19385734420596504
2023-01-15 19:45:35.392027,0.19726596254427886
2023-01-15 19:45:35.49205,0.1761499582817262
2023-01-15 19:45:35.59208,0.1822761317690727
2023-01-15 19:45:35.692038,0.1761499582817262
2023-01-15 19:45:35.792136,0.1863621916046411
2023-01-15 19:45:35.892018,0.20135773345150254
2023-01-15 19:45:35.992071,0.1815952730486532
2023-01-15 19:45:36.092007,0.15168020297568977
2023-01-15 19:45:36.192065,0.18976843033021362
2023-01-15 19:45:36.292081,0.1761499582817262
2023-01-15 19:45:36.392049,0.19249419984582047
2023-01-15 19:45:36.492067,0.15507544144400368
2023-01-15 19:45:36.592104,0.16186914718871923
2023-01-15 19:45:36.692051,0.16526761548879507
2023-01-15 19:45:36.892223,0.19658415229578782
2023-01-15 19:45:36.991976,0.2225234155321344
2023-01-15 19:45:37.091932,0.11305038193043804
2023-01-15 19:45:37.191913,0.1734283371351172
2023-01-15 19:45:37.291887,0.1734283371351172
2023-01-15 19:45:37.391874,0.20476873389704023
2023-01-15 19:45:37.49191,0.23004384980227915
2023-01-15 19:45:37.591913,0.18704335286781285
2023-01-15 19:45:37.692349,0.19522066167829463
2023-01-15 19:45:37.792491,0.17887227016524054
2023-01-15 19:45:37.892456,0.1815952730486532
2023-01-15 19:45:37.992581,0.19453898130104574
2023-01-15 19:45:38.092408,0.14625005843569047
2023-01-15 19:45:38.192469,0.19385734420596504
2023-01-15 19:45:38.292424,0.19453898130104574
2023-01-15 19:45:38.392394,0.2040864471363268
2023-01-15 19:45:38.492435,0.16254875466254637
2023-01-15 19:45:38.592522,0.174108677679562
2023-01-15 19:45:38.692404,0.16186914718871923
2023-01-15 19:45:38.792396,0.16186914718871923
2023-01-15 19:45:38.892397,0.1754694882487593
2023-01-15 19:45:38.992501,0.18704335286781285
2023-01-15 19:45:39.092412,0.16390809888128582
2023-01-15 19:45:39.192437,0.187724557367839
2023-01-15 19:45:39.292392,0.18295703369754324
2023-01-15 19:45:39.392407,0.174108677679562
2023-01-15 19:45:39.492434,0.187724557367839
2023-01-15 19:45:39.592372,0.1802336852155173
2023-01-15 19:45:39.692375,0.19453898130104574
2023-01-15 19:45:39.792367,0.1720677855060035
2023-01-15 19:45:39.892373,0.19249419984582047
2023-01-15 19:45:39.992357,0.19385734420596504
2023-01-15 19:45:40.092629,0.16798716600131114
2023-01-15 19:45:40.192453,0.1959023853418343
2023-01-15 19:45:40.292512,0.18295703369754324
2023-01-15 19:45:40.392387,0.16118958279979007
2023-01-15 19:45:40.49243,0.1727480397452997
2023-01-15 19:45:40.592472,0.16866716142367352
2023-01-15 19:45:40.692492,0.19726596254427886
2023-01-15 19:45:40.792401,0.19317575038893042
2023-01-15 19:45:40.892402,0.16798716600131114
2023-01-15 19:45:40.992367,0.1856810735742072
2023-01-15 19:45:41.092373,0.16390809888128582
2023-01-15 19:45:41.192392,0.1727480397452997
2023-01-15 19:45:41.292447,0.20272200363056678
2023-01-15 19:45:41.392366,0.14557148386968702
2023-01-15 19:45:41.492399,0.16254875466254637
2023-01-15 19:45:41.592421,0.174108677679562
2023-01-15 19:45:41.692369,0.17478906138274036
2023-01-15 19:45:41.792362,0.1734283371351172
2023-01-15 19:45:41.892375,0.1802336852155173
2023-01-15 19:45:41.992352,0.10628757675577537
2023-01-15 19:45:42.092375,0.1537172169534645
2023-01-15 19:45:42.192427,0.17138757441312333
2023-01-15 19:45:42.292374,0.1543963076788044
2023-01-15 19:45:42.392361,0.16730721370074356
2023-01-15 19:45:42.492439,0.17138757441312333
2023-01-15 19:45:42.592468,0.16186914718871923
2023-01-15 19:45:42.692388,0.17887227016524054
2023-01-15 19:45:42.792496,0.17955295609457714
2023-01-15 19:45:42.892355,0.1734283371351172
2023-01-15 19:45:42.992471,0.17070740646255425
2023-01-15 19:45:43.092425,0.15235916460599774
2023-01-15 19:45:43.192421,0.17070740646255425
2023-01-15 19:45:43.292397,0.16866716142367352
2023-01-15 19:45:43.392373,0.18499999877239548
2023-01-15 19:45:43.492365,0.15507544144400368
2023-01-15 19:45:43.592425,0.17955295609457714
2023-01-15 19:45:43.692397,0.15507544144400368
2023-01-15 19:45:43.792365,0.1734283371351172
2023-01-15 19:45:43.89237,0.15032240878147599
2023-01-15 19:45:43.992441,0.1564338381103479
2023-01-15 19:45:44.092446,0.17070740646255425
2023-01-15 19:45:44.192395,0.1734283371351172
2023-01-15 19:45:44.292385,0.16051006149166203
2023-01-15 19:45:44.392399,0.14082266530691223
2023-01-15 19:45:44.492429,0.1645878356343947
2023-01-15 19:45:44.592503,0.1815952730486532
2023-01-15 19:45:44.69239,0.16866716142367352
2023-01-15 19:45:44.792375,0.1802336852155173
2023-01-15 19:45:44.892375,0.16254875466254637
2023-01-15 19:45:44.992365,0.16186914718871923
2023-01-15 19:45:45.092372,0.16118958279979007
2023-01-15 19:45:45.19243,0.18431896719509067
2023-01-15 19:45:45.292363,0.18295703369754324
2023-01-15 19:45:45.392434,0.14625005843569047
2023-01-15 19:45:45.492431,0.15235916460599774
2023-01-15 19:45:45.592367,0.16118958279979007
2023-01-15 19:45:45.692437,0.17070740646255425
2023-01-15 19:45:45.79243,0.15032240878147599
2023-01-15 19:45:45.892394,0.15507544144400368
2023-01-15 19:45:45.992399,0.1754694882487593
2023-01-15 19:45:46.092451,0.15847175601112184
2023-01-15 19:45:46.192462,0.174108677679562
2023-01-15 19:45:46.292284,0.18091445753217217
2023-01-15 19:45:46.392371,0.15711310101967813
2023-01-15 19:45:46.492414,0.16118958279979007
2023-01-15 19:45:46.592471,0.14421446369373303
2023-01-15 19:45:46.692429,0.1754694882487593
2023-01-15 19:45:46.895874,0.12320261431908154
2023-01-15 19:45:46.992119,0.1863621916046411
2023-01-15 19:45:47.092124,0.12455697349201138
2023-01-15 19:45:47.192464,0.17955295609457714
2023-01-15 19:45:47.292444,0.17955295609457714
2023-01-15 19:45:47.392374,0.15983058326023855
2023-01-15 19:45:47.492044,0.20613343745478352
2023-01-15 19:45:47.592105,0.14828604009482954
2023-01-15 19:45:47.691999,0.1720677855060035
2023-01-15 19:45:47.792128,0.2006756633491607
2023-01-15 19:45:47.892032,0.174108677679562
2023-01-15 19:45:47.992181,0.1856810735742072
2023-01-15 19:45:48.092075,0.174108677679562
2023-01-15 19:45:48.192055,0.18704335286781285
2023-01-15 19:45:48.292029,0.19726596254427886
2023-01-15 19:45:48.392158,0.1734283371351172
2023-01-15 19:45:48.49201,0.17683047148574899
2023-01-15 19:45:48.592061,0.1979478160914316
2023-01-15 19:45:48.692014,0.17070740646255425
2023-01-15 19:45:48.792059,0.16526761548879507
2023-01-15 19:45:48.891974,0.17955295609457714
2023-01-15 19:45:48.992092,0.19862971294137066
2023-01-15 19:45:49.092053,0.2006756633491607
2023-01-15 19:45:49.192056,0.174108677679562
2023-01-15 19:45:49.291979,0.1564338381103479
2023-01-15 19:45:49.392088,0.15032240878147599
2023-01-15 19:45:49.492108,0.16798716600131114
2023-01-15 19:45:49.592099,0.17819162742339695
2023-01-15 19:45:49.692004,0.13607595169266967
2023-01-15 19:45:49.792068,0.18704335286781285
2023-01-15 19:45:49.891992,0.18704335286781285
2023-01-15 19:45:49.992193,0.14625005843569047
2023-01-15 19:45:50.092393,0.15915114810142364
2023-01-15 19:45:50.192401,0.1727480397452997
2023-01-15 19:45:50.292448,0.1720677855060035
2023-01-15 19:45:50.392407,0.15575461825315406
2023-01-15 19:45:50.492515,0.16730721370074356
2023-01-15 19:45:50.592464,0.14964357620939217
2023-01-15 19:45:50.692443,0.1863621916046411
2023-01-15 19:45:50.792398,0.17138757441312333
2023-01-15 19:45:50.892388,0.15032240878147599
2023-01-15 19:45:50.992357,0.16730721370074356
2023-01-15 19:45:51.092368,0.14964357620939217
2023-01-15 19:45:51.192384,0.1645878356343947
2023-01-15 19:45:51.292348,0.17002728165019204
2023-01-15 19:45:51.392352,0.1822761317690727
2023-01-15 19:45:51.492348,0.1802336852155173
2023-01-15 19:45:51.592385,0.17002728165019204
2023-01-15 19:45:51.692349,0.16866716142367352
2023-01-15 19:45:51.792355,0.16186914718871923
2023-01-15 19:45:51.892455,0.1727480397452997
2023-01-15 19:45:51.992526,0.15779240698523814
2023-01-15 19:45:52.092266,0.17819162742339695
2023-01-15 19:45:52.191915,0.1754694882487593
2023-01-15 19:45:52.291838,0.187724557367839
2023-01-15 19:45:52.391841,0.1761499582817262
2023-01-15 19:45:52.49184,0.14964357620939217
2023-01-15 19:45:52.591883,0.2006756633491607
2023-01-15 19:45:52.691957,0.13539802149870728
2023-01-15 19:45:52.791925,0.1761499582817262
2023-01-15 19:45:52.892421,0.16594743844858642
2023-01-15 19:45:52.992464,0.15983058326023855
2023-01-15 19:45:53.092405,0.14828604009482954
2023-01-15 19:45:53.192567,0.1537172169534645
2023-01-15 19:45:53.291955,0.17955295609457714
2023-01-15 19:45:53.391963,0.19249419984582047
2023-01-15 19:45:53.491881,0.1979478160914316
2023-01-15 19:45:53.591863,0.15915114810142364
2023-01-15 19:45:53.691855,0.16662730451786906
2023-01-15 19:45:53.791851,0.17751102786493625
2023-01-15 19:45:53.891838,0.1543963076788044
2023-01-15 19:45:53.992456,0.16594743844858642
2023-01-15 19:45:54.092327,0.16730721370074356
2023-01-15 19:45:54.192368,0.1537172169534645
2023-01-15 19:45:54.292282,0.17955295609457714
2023-01-15 19:45:54.392352,0.16526761548879507
2023-01-15 19:45:54.492362,0.16866716142367352
2023-01-15 19:45:54.59241,0.14896478664853924
2023-01-15 19:45:54.69231,0.19522066167829463
2023-01-15 19:45:54.792344,0.14964357620939217
2023-01-15 19:45:54.8923,0.16662730451786906
2023-01-15 19:45:54.992318,0.1856810735742072
2023-01-15 19:45:55.092344,0.16730721370074356
2023-01-15 19:45:55.192344,0.16798716600131114
2023-01-15 19:45:55.292316,0.14760733654417585
2023-01-15 19:45:55.392324,0.17002728165019204
2023-01-15 19:45:55.492335,0.17070740646255425
2023-01-15 19:45:55.592331,0.16118958279979007
2023-01-15 19:45:55.69234,0.14082266530691223
2023-01-15 19:45:55.79239,0.1720677855060035
2023-01-15 19:45:55.892301,0.16186914718871923
2023-01-15 19:45:55.992288,0.15507544144400368
2023-01-15 19:45:56.092317,0.16934719997193287
2023-01-15 19:45:56.192346,0.15235916460599774
2023-01-15 19:45:56.292317,0.14964357620939217
2023-01-15 19:45:56.392292,0.174108677679562
2023-01-15 19:45:56.492299,0.16186914718871923
2023-01-15 19:45:56.592332,0.15847175601112184
2023-01-15 19:45:56.692316,0.15779240698523814
2023-01-15 19:45:56.89472,0.19113122856489057
2023-01-15 19:45:56.991916,0.20749831442182104
2023-01-15 19:45:57.091922,0.17683047148574899
2023-01-15 19:45:57.191884,0.1645878356343947
2023-01-15 19:45:57.291866,0.17819162742339695
2023-01-15 19:45:57.391867,0.17819162742339695
2023-01-15 19:45:57.491874,0.1761499582817262
2023-01-15 19:45:57.591873,0.15915114810142364
2023-01-15 19:45:57.691877,0.23004384980227915
2023-01-15 19:45:57.792359,0.13946624668767665
2023-01-15 19:45:57.892314,0.15779240698523814
2023-01-15 19:45:57.992332,0.14285761543195497
2023-01-15 19:45:58.092313,0.14421446369373303
2023-01-15 19:45:58.192331,0.12320261431908154
2023-01-15 19:45:58.292413,0.1564338381103479
2023-01-15 19:45:58.392304,0.16594743844858642
2023-01-15 19:45:58.492379,0.15915114810142364
2023-01-15 19:45:58.592344,0.16254875466254637
2023-01-15 19:45:58.692385,0.15235916460599774
2023-01-15 19:45:58.792393,0.1564338381103479
2023-01-15 19:45:58.8923,0.16186914718871923
2023-01-15 19:45:58.992383,0.1530381692638925
2023-01-15 19:45:59.092329,0.15779240698523814
2023-01-15 19:45:59.192336,0.14014443452026934
2023-01-15 19:45:59.292363,0.12794362155133784
2023-01-15 19:45:59.392399,0.16934719997193287
2023-01-15 19:45:59.492311,0.1802336852155173
2023-01-15 19:45:59.59228,0.1537172169534645
2023-01-15 19:45:59.692282,0.15711310101967813
2023-01-15 19:45:59.79227,0.16934719997193287
2023-01-15 19:45:59.892272,0.17070740646255425
2023-01-15 19:45:59.992279,0.133364488453501
2023-01-15 19:46:00.092338,0.16186914718871923
2023-01-15 19:46:00.192163,0.15915114810142364
2023-01-15 19:46:00.292118,0.15915114810142364
2023-01-15 19:46:00.39203,0.16186914718871923
2023-01-15 19:46:00.492082,0.16254875466254637
2023-01-15 19:46:00.592046,0.15915114810142364
2023-01-15 19:46:00.692084,0.17751102786493625
2023-01-15 19:46:00.792032,0.16594743844858642
2023-01-15 19:46:00.892016,0.14489295229039612
2023-01-15 19:46:00.991962,0.19385734420596504
2023-01-15 19:46:01.092092,0.15847175601112184
2023-01-15 19:46:01.19207,0.15915114810142364
2023-01-15 19:46:01.292086,0.18363797883817798
2023-01-15 19:46:01.391955,0.15168020297568977
2023-01-15 19:46:01.492005,0.16390809888128582
2023-01-15 19:46:01.592063,0.14285761543195497
2023-01-15 19:46:01.691968,0.1802336852155173
2023-01-15 19:46:01.791995,0.18704335286781285
2023-01-15 19:46:01.892036,0.16118958279979007
2023-01-15 19:46:01.992012,0.1890870960949217
2023-01-15 19:46:02.092045,0.21979001600009837
2023-01-15 19:46:02.191984,0.14150093905168643
2023-01-15 19:46:02.292014,0.1754694882487593
2023-01-15 19:46:02.392173,0.19726596254427886
2023-01-15 19:46:02.492096,0.1754694882487593
2023-01-15 19:46:02.592085,0.17751102786493625
2023-01-15 19:46:02.692068,0.18363797883817798
2023-01-15 19:46:02.792081,0.21022858871600358
2023-01-15 19:46:02.892511,0.19317575038893042
2023-01-15 19:46:02.993001,0.22662481846183558
2023-01-15 19:46:03.092454,0.17751102786493625
2023-01-15 19:46:03.192364,0.1959023853418343
2023-01-15 19:46:03.292382,0.18431896719509067
2023-01-15 19:46:03.392406,0.20476873389704023
2023-01-15 19:46:03.49235,0.21979001600009837
2023-01-15 19:46:03.592373,0.19453898130104574
2023-01-15 19:46:03.692338,0.20886336483120688
2023-01-15 19:46:03.792357,0.213642407599966
2023-01-15 19:46:03.892322,0.20272200363056678
2023-01-15 19:46:03.992462,0.19453898130104574
2023-01-15 19:46:04.092378,0.2006756633491607
2023-01-15 19:46:04.192359,0.19113122856489057
2023-01-15 19:46:04.292321,0.19862971294137066
2023-01-15 19:46:04.392329,0.20749831442182104
2023-01-15 19:46:04.492378,0.2095459550871121
2023-01-15 19:46:04.592442,0.20476873389704023
2023-01-15 19:46:04.692356,0.19385734420596504
2023-01-15 19:46:04.792322,0.2006756633491607
2023-01-15 19:46:04.892314,0.20818081794415416
2023-01-15 19:46:04.992348,0.20135773345150254
2023-01-15 19:46:05.092362,0.2095459550871121
2023-01-15 19:46:05.192425,0.1815952730486532
2023-01-15 19:46:05.292402,0.18295703369754324
2023-01-15 19:46:05.392344,0.18363797883817798
2023-01-15 19:46:05.492386,0.20886336483120688
2023-01-15 19:46:05.592381,0.20476873389704023
2023-01-15 19:46:05.692365,0.17955295609457714
2023-01-15 19:46:05.792344,0.18363797883817798
2023-01-15 19:46:05.892351,0.1959023853418343
2023-01-15 19:46:05.992312,0.22525751029017263
2023-01-15 19:46:06.092366,0.22047330072017177
2023-01-15 19:46:06.192374,0.19999363656610927
2023-01-15 19:46:06.292365,0.19726596254427886
2023-01-15 19:46:06.392315,0.19453898130104574
2023-01-15 19:46:06.492379,0.19181269257251396
2023-01-15 19:46:06.592401,0.19658415229578782
2023-01-15 19:46:06.69234,0.18431896719509067
2023-01-15 19:46:06.89252,0.1959023853418343
2023-01-15 19:46:06.991925,0.1734283371351172
2023-01-15 19:46:07.091906,0.18976843033021362
2023-01-15 19:46:07.191863,0.174108677679562
2023-01-15 19:46:07.291823,0.18704335286781285
2023-01-15 19:46:07.391805,0.1890870960949217
2023-01-15 19:46:07.491851,0.23414812286538242
2023-01-15 19:46:07.591903,0.1802336852155173
2023-01-15 19:46:07.692618,0.174108677679562
2023-01-15 19:46:07.792368,0.1815952730486532
2023-01-15 19:46:07.892513,0.1822761317690727
2023-01-15 19:46:07.992563,0.19113122856489057
2023-01-15 19:46:08.092501,0.18976843033021362
2023-01-15 19:46:08.192412,0.1863621916046411
2023-01-15 19:46:08.292401,0.1856810735742072
2023-01-15 19:46:08.392342,0.1890870960949217
2023-01-15 19:46:08.492358,0.16866716142367352
2023-01-15 19:46:08.592339,0.15235916460599774
2023-01-15 19:46:08.692323,0.16526761548879507
2023-01-15 19:46:08.792363,0.16934719997193287
2023-01-15 19:46:08.892392,0.17887227016524054
2023-01-15 19:46:08.992395,0.1863621916046411
2023-01-15 19:46:09.092391,0.16662730451786906
2023-01-15 19:46:09.192362,0.16866716142367352
2023-01-15 19:46:09.292337,0.15847175601112184
2023-01-15 19:46:09.392335,0.17887227016524054
2023-01-15 19:46:09.492409,0.18363797883817798
2023-01-15 19:46:09.592354,0.19522066167829463
2023-01-15 19:46:09.692343,0.19181269257251396
2023-01-15 19:46:09.792335,0.1863621916046411
2023-01-15 19:46:09.892331,0.19385734420596504
2023-01-15 19:46:09.99234,0.17478906138274036
2023-01-15 19:46:10.092351,0.16866716142367352
2023-01-15 19:46:10.192381,0.1761499582817262
2023-01-15 19:46:10.292429,0.16730721370074356
2023-01-15 19:46:10.392356,0.18499999877239548
2023-01-15 19:46:10.492367,0.1959023853418343
2023-01-15 19:46:10.592419,0.18091445753217217
2023-01-15 19:46:10.692467,0.17955295609457714
2023-01-15 19:46:10.792385,0.17683047148574899
2023-01-15 19:46:10.892308,0.1645878356343947
2023-01-15 19:46:10.992353,0.187724557367839
2023-01-15 19:46:11.092378,0.18363797883817798
2023-01-15 19:46:11.192357,0.1564338381103479
2023-01-15 19:46:11.292348,0.16390809888128582
2023-01-15 19:46:11.392323,0.1754694882487593
2023-01-15 19:46:11.492316,0.19044980781883028
2023-01-15 19:46:11.59235,0.17683047148574899
2023-01-15 19:46:11.692345,0.15100128436887894
2023-01-15 19:46:11.792371,0.17751102786493625
2023-01-15 19:46:11.892326,0.1815952730486532
2023-01-15 19:46:11.992332,0.17887227016524054
2023-01-15 19:46:12.092308,0.17887227016524054
2023-01-15 19:46:12.192355,0.1543963076788044
2023-01-15 19:46:12.292317,0.18704335286781285
2023-01-15 19:46:12.392314,0.16662730451786906
2023-01-15 19:46:12.492356,0.16254875466254637
2023-01-15 19:46:12.592376,0.1754694882487593
2023-01-15 19:46:12.692359,0.18295703369754324
2023-01-15 19:46:12.792369,0.16866716142367352
2023-01-15 19:46:12.892352,0.16730721370074356
2023-01-15 19:46:12.992177,0.1863621916046411
2023-01-15 19:46:13.092044,0.18704335286781285
2023-01-15 19:46:13.192058,0.19931165309822133
2023-01-15 19:46:13.291957,0.1863621916046411
2023-01-15 19:46:13.392052,0.1543963076788044
2023-01-15 19:46:13.492073,0.21500823890918905
2023-01-15 19:46:13.592249,0.18091445753217217
2023-01-15 19:46:13.692094,0.16051006149166203
2023-01-15 19:46:13.792009,0.12658883371405882
2023-01-15 19:46:13.892115,0.1734283371351172
2023-01-15 19:46:13.992,0.18295703369754324
2023-01-15 19:46:14.092092,0.2040864471363268
2023-01-15 19:46:14.191989,0.19658415229578782
2023-01-15 19:46:14.292034,0.16051006149166203
2023-01-15 19:46:14.391961,0.13878810180505383
2023-01-15 19:46:14.492054,0.16051006149166203
2023-01-15 19:46:14.592037,0.2040864471363268
2023-01-15 19:46:14.692013,0.1754694882487593
2023-01-15 19:46:14.79197,0.19522066167829463
2023-01-15 19:46:14.89203,0.1564338381103479
2023-01-15 19:46:14.991966,0.15100128436887894
2023-01-15 19:46:15.092024,0.16594743844858642
2023-01-15 19:46:15.191982,0.187724557367839
2023-01-15 19:46:15.292011,0.19113122856489057
2023-01-15 19:46:15.39197,0.20749831442182104
2023-01-15 19:46:15.492028,0.17819162742339695
2023-01-15 19:46:15.592171,0.17138757441312333
2023-01-15 19:46:15.692405,0.19658415229578782
2023-01-15 19:46:15.792354,0.1727480397452997
2023-01-15 19:46:15.892326,0.17002728165019204
2023-01-15 19:46:15.992388,0.17683047148574899
2023-01-15 19:46:16.092346,0.17887227016524054
2023-01-15 19:46:16.192406,0.15507544144400368
2023-01-15 19:46:16.292348,0.17751102786493625
2023-01-15 19:46:16.39235,0.15575461825315406
2023-01-15 19:46:16.492387,0.19113122856489057
2023-01-15 19:46:16.592436,0.14557148386968702
2023-01-15 19:46:16.692343,0.174108677679562
2023-01-15 19:46:16.894798,0.16254875466254637
2023-01-15 19:46:16.99204,0.1543963076788044
2023-01-15 19:46:17.091914,0.17751102786493625
2023-01-15 19:46:17.19187,0.2095459550871121
2023-01-15 19:46:17.291836,0.1959023853418343
2023-01-15 19:46:17.391826,0.18499999877239548
2023-01-15 19:46:17.491832,0.14014443452026934
2023-01-15 19:46:17.591859,0.16254875466254637
2023-01-15 19:46:17.692366,0.17070740646255425
2023-01-15 19:46:17.792369,0.1754694882487593
2023-01-15 19:46:17.89255,0.1761499582817262
2023-01-15 19:46:17.992256,0.16118958279979007
2023-01-15 19:46:18.092476,0.15711310101967813
2023-01-15 19:46:18.192337,0.15100128436887894
2023-01-15 19:46:18.292363,0.16594743844858642
2023-01-15 19:46:18.39232,0.16526761548879507
2023-01-15 19:46:18.492411,0.17887227016524054
2023-01-15 19:46:18.59237,0.16322840522536922
2023-01-15 19:46:18.69234,0.16934719997193287
2023-01-15 19:46:18.792313,0.18363797883817798
2023-01-15 19:46:18.892412,0.18363797883817798
2023-01-15 19:46:18.992457,0.15711310101967813
2023-01-15 19:46:19.092391,0.16594743844858642
2023-01-15 19:46:19.192361,0.1645878356343947
2023-01-15 19:46:19.292414,0.16730721370074356
2023-01-15 19:46:19.392375,0.1802336852155173
2023-01-15 19:46:19.492331,0.1530381692638925
2023-01-15 19:46:19.592418,0.1761499582817262
2023-01-15 19:46:19.692341,0.16390809888128582
2023-01-15 19:46:19.792318,0.16662730451786906
2023-01-15 19:46:19.892325,0.1727480397452997
2023-01-15 19:46:19.992394,0.2006756633491607
2023-01-15 19:46:20.092321,0.19453898130104574
2023-01-15 19:46:20.192405,0.16390809888128582
2023-01-15 19:46:20.292453,0.16730721370074356
2023-01-15 19:46:20.392361,0.18840580510883612
2023-01-15 19:46:20.49237,0.1822761317690727
2023-01-15 19:46:20.592317,0.18976843033021362
2023-01-15 19:46:20.692338,0.17002728165019204
2023-01-15 19:46:20.792374,0.16254875466254637
2023-01-15 19:46:20.892389,0.19181269257251396
2023-01-15 19:46:20.992332,0.1727480397452997
2023-01-15 19:46:21.092324,0.15915114810142364
2023-01-15 19:46:21.19239,0.14285761543195497
2023-01-15 19:46:21.292393,0.18704335286781285
2023-01-15 19:46:21.392426,0.14828604009482954
2023-01-15 19:46:21.492361,0.16322840522536922
2023-01-15 19:46:21.592403,0.16934719997193287
2023-01-15 19:46:21.692356,0.1761499582817262
2023-01-15 19:46:21.792332,0.17751102786493625
2023-01-15 19:46:21.892306,0.1754694882487593
2023-01-15 19:46:21.992311,0.1727480397452997
2023-01-15 19:46:22.092376,0.16662730451786906
2023-01-15 19:46:22.19235,0.17751102786493625
2023-01-15 19:46:22.292313,0.15032240878147599
2023-01-15 19:46:22.392356,0.16662730451786906
2023-01-15 19:46:22.492313,0.1734283371351172
2023-01-15 19:46:22.592399,0.1734283371351172
2023-01-15 19:46:22.69234,0.15575461825315406
2023-01-15 19:46:22.792461,0.1959023853418343
2023-01-15 19:46:22.892337,0.16390809888128582
2023-01-15 19:46:22.992454,0.14828604009482954
2023-01-15 19:46:23.092341,0.1543963076788044
2023-01-15 19:46:23.192377,0.17955295609457714
2023-01-15 19:46:23.292371,0.16662730451786906
2023-01-15 19:46:23.392312,0.18091445753217217
2023-01-15 19:46:23.492354,0.17887227016524054
2023-01-15 19:46:23.592303,0.16051006149166203
2023-01-15 19:46:23.692342,0.17955295609457714
2023-01-15 19:46:23.792322,0.1822761317690727
2023-01-15 19:46:23.89232,0.16866716142367352
2023-01-15 19:46:23.992346,0.1727480397452997
2023-01-15 19:46:24.092391,0.19726596254427886
2023-01-15 19:46:24.192358,0.1802336852155173
2023-01-15 19:46:24.292319,0.17478906138274036
2023-01-15 19:46:24.392344,0.15847175601112184
2023-01-15 19:46:24.492337,0.1890870960949217
2023-01-15 19:46:24.592783,0.17478906138274036
2023-01-15 19:46:24.692241,0.18363797883817798
2023-01-15 19:46:24.792347,0.1727480397452997
2023-01-15 19:46:24.892357,0.15507544144400368
2023-01-15 19:46:24.992358,0.1856810735742072
2023-01-15 19:46:25.092335,0.16322840522536922
2023-01-15 19:46:25.192374,0.18704335286781285
2023-01-15 19:46:25.292905,0.16390809888128582
2023-01-15 19:46:25.392725,0.18091445753217217
2023-01-15 19:46:25.4923,0.17751102786493625
2023-01-15 19:46:25.592419,0.16186914718871923
2023-01-15 19:46:25.692396,0.17955295609457714
2023-01-15 19:46:25.79206,0.15235916460599774
2023-01-15 19:46:25.892,0.16322840522536922
2023-01-15 19:46:25.991965,0.19453898130104574
2023-01-15 19:46:26.091988,0.17751102786493625
2023-01-15 19:46:26.191998,0.1543963076788044
2023-01-15 19:46:26.29203,0.174108677679562
2023-01-15 19:46:26.391989,0.187724557367839
2023-01-15 19:46:26.491968,0.1761499582817262
2023-01-15 19:46:26.592029,0.17070740646255425
2023-01-15 19:46:26.691976,0.19113122856489057
2023-01-15 19:46:26.892135,0.18499999877239548
2023-01-15 19:46:26.99204,0.1761499582817262
2023-01-15 19:46:27.091982,0.1822761317690727
2023-01-15 19:46:27.191861,0.16866716142367352
2023-01-15 19:46:27.291958,0.1564338381103479
2023-01-15 19:46:27.391848,0.19999363656610927
2023-01-15 19:46:27.491976,0.1822761317690727
2023-01-15 19:46:27.5919,0.187724557367839
2023-01-15 19:46:27.692037,0.187724557367839
2023-01-15 19:46:27.792042,0.174108677679562
2023-01-15 19:46:27.892127,0.17138757441312333
2023-01-15 19:46:27.991974,0.17683047148574899
2023-01-15 19:46:28.092089,0.16254875466254637
2023-01-15 19:46:28.191994,0.16934719997193287
2023-01-15 19:46:28.292073,0.1815952730486532
2023-01-15 19:46:28.39237,0.15915114810142364
2023-01-15 19:46:28.492376,0.17955295609457714
2023-01-15 19:46:28.592449,0.16526761548879507
2023-01-15 19:46:28.692424,0.14964357620939217
2023-01-15 19:46:28.792369,0.1815952730486532
2023-01-15 19:46:28.892329,0.19113122856489057
2023-01-15 19:46:28.992445,0.1537172169534645
2023-01-15 19:46:29.092397,0.1727480397452997
2023-01-15 19:46:29.192378,0.1754694882487593
2023-01-15 19:46:29.292388,0.14828604009482954
2023-01-15 19:46:29.392328,0.16390809888128582
2023-01-15 19:46:29.492388,0.15711310101967813
2023-01-15 19:46:29.592463,0.17955295609457714
2023-01-15 19:46:29.692361,0.1645878356343947
2023-01-15 19:46:29.792327,0.17955295609457714
2023-01-15 19:46:29.892397,0.17683047148574899
2023-01-15 19:46:29.992322,0.19181269257251396
2023-01-15 19:46:30.092337,0.1802336852155173
2023-01-15 19:46:30.192346,0.16322840522536922
2023-01-15 19:46:30.292414,0.16730721370074356
2023-01-15 19:46:30.39236,0.19044980781883028
2023-01-15 19:46:30.492351,0.16866716142367352
2023-01-15 19:46:30.592451,0.15847175601112184
2023-01-15 19:46:30.692379,0.1734283371351172
2023-01-15 19:46:30.792342,0.174108677679562
2023-01-15 19:46:30.892315,0.15915114810142364
2023-01-15 19:46:30.992317,0.16118958279979007
2023-01-15 19:46:31.092362,0.17070740646255425
2023-01-15 19:46:31.192383,0.18431896719509067
2023-01-15 19:46:31.292321,0.17002728165019204
2023-01-15 19:46:31.392338,0.17955295609457714
2023-01-15 19:46:31.492311,0.18091445753217217
2023-01-15 19:46:31.592379,0.16051006149166203
2023-01-15 19:46:31.692349,0.19317575038893042
2023-01-15 19:46:31.792369,0.16186914718871923
2023-01-15 19:46:31.892312,0.15507544144400368
2023-01-15 19:46:31.992309,0.18499999877239548
2023-01-15 19:46:32.092297,0.17955295609457714
2023-01-15 19:46:32.192391,0.13065371182664665
2023-01-15 19:46:32.292345,0.1802336852155173
2023-01-15 19:46:32.392367,0.17478906138274036
2023-01-15 19:46:32.492365,0.1645878356343947
2023-01-15 19:46:32.592365,0.17070740646255425
2023-01-15 19:46:32.692387,0.17819162742339695
2023-01-15 19:46:32.792364,0.19726596254427886
2023-01-15 19:46:32.892456,0.1564338381103479
2023-01-15 19:46:32.992331,0.17819162742339695
2023-01-15 19:46:33.092297,0.18431896719509067
2023-01-15 19:46:33.192356,0.1645878356343947
2023-01-15 19:46:33.292341,0.1727480397452997
2023-01-15 19:46:33.392325,0.1727480397452997
2023-01-15 19:46:33.492277,0.16866716142367352
2023-01-15 19:46:33.592233,0.18295703369754324
2023-01-15 19:46:33.69242,0.1761499582817262
2023-01-15 19:46:33.79241,0.14625005843569047
2023-01-15 19:46:33.892345,0.1727480397452997
2023-01-15 19:46:33.992373,0.1754694882487593
2023-01-15 19:46:34.092436,0.14828604009482954
2023-01-15 19:46:34.192347,0.15915114810142364
2023-01-15 19:46:34.292332,0.19317575038893042
2023-01-15 19:46:34.392318,0.1543963076788044
2023-01-15 19:46:34.492403,0.1863621916046411
2023-01-15 19:46:34.592418,0.17751102786493625
2023-01-15 19:46:34.692383,0.16798716600131114
2023-01-15 19:46:34.792322,0.1727480397452997
2023-01-15 19:46:34.892307,0.14896478664853924
2023-01-15 19:46:34.992382,0.1802336852155173
2023-01-15 19:46:35.092337,0.19658415229578782
2023-01-15 19:46:35.192359,0.17751102786493625
2023-01-15 19:46:35.292401,0.17002728165019204
2023-01-15 19:46:35.392366,0.174108677679562
2023-01-15 19:46:35.492319,0.16254875466254637
2023-01-15 19:46:35.592315,0.16798716600131114
2023-01-15 19:46:35.692396,0.15575461825315406
2023-01-15 19:46:35.792321,0.16594743844858642
2023-01-15 19:46:35.89234,0.17070740646255425
2023-01-15 19:46:35.992328,0.1645878356343947
2023-01-15 19:46:36.092347,0.16730721370074356
2023-01-15 19:46:36.19231,0.1815952730486532
2023-01-15 19:46:36.292316,0.15032240878147599
2023-01-15 19:46:36.39231,0.17138757441312333
2023-01-15 19:46:36.492343,0.17751102786493625
2023-01-15 19:46:36.592393,0.17002728165019204
2023-01-15 19:46:36.692303,0.17070740646255425
2023-01-15 19:46:36.892597,0.1754694882487593
2023-01-15 19:46:36.992151,0.18704335286781285
2023-01-15 19:46:37.091907,0.2006756633491607
2023-01-15 19:46:37.191854,0.16051006149166203
2023-01-15 19:46:37.291834,0.16390809888128582
2023-01-15 19:46:37.391827,0.20203984687726192
2023-01-15 19:46:37.491833,0.17683047148574899
2023-01-15 19:46:37.591852,0.16866716142367352
2023-01-15 19:46:37.691822,0.20476873389704023
2023-01-15 19:46:37.792383,0.18363797883817798
2023-01-15 19:46:37.892412,0.16594743844858642
2023-01-15 19:46:37.992359,0.16866716142367352
2023-01-15 19:46:38.09241,0.16118958279979007
2023-01-15 19:46:38.19237,0.17478906138274036
2023-01-15 19:46:38.292368,0.15711310101967813
2023-01-15 19:46:38.392412,0.16254875466254637
2023-01-15 19:46:38.492356,0.15983058326023855
2023-01-15 19:46:38.592358,0.15032240878147599
2023-01-15 19:46:38.691997,0.15032240878147599
2023-01-15 19:46:38.792085,0.17138757441312333
2023-01-15 19:46:38.89211,0.1822761317690727
2023-01-15 19:46:38.992067,0.14625005843569047
2023-01-15 19:46:39.09206,0.14557148386968702
2023-01-15 19:46:39.191963,0.20272200363056678
2023-01-15 19:46:39.292125,0.1537172169534645
2023-01-15 19:46:39.391932,0.18091445753217217
2023-01-15 19:46:39.492116,0.16730721370074356
2023-01-15 19:46:39.591997,0.15507544144400368
2023-01-15 19:46:39.692099,0.16390809888128582
2023-01-15 19:46:39.79194,0.17070740646255425
2023-01-15 19:46:39.892072,0.16730721370074356
2023-01-15 19:46:39.991955,0.1734283371351172
2023-01-15 19:46:40.092091,0.15915114810142364
2023-01-15 19:46:40.19194,0.14964357620939217
2023-01-15 19:46:40.292149,0.17138757441312333
2023-01-15 19:46:40.39195,0.17751102786493625
2023-01-15 19:46:40.491982,0.16051006149166203
2023-01-15 19:46:40.59206,0.18431896719509067
2023-01-15 19:46:40.692036,0.17955295609457714
2023-01-15 19:46:40.791969,0.15575461825315406
2023-01-15 19:46:40.891941,0.17478906138274036
2023-01-15 19:46:40.991941,0.19181269257251396
2023-01-15 19:46:41.091958,0.16254875466254637
2023-01-15 19:46:41.192054,0.18363797883817798
2023-01-15 19:46:41.292355,0.1727480397452997
2023-01-15 19:46:41.392296,0.16798716600131114
2023-01-15 19:46:41.492313,0.16934719997193287
2023-01-15 19:46:41.592417,0.17751102786493625
2023-01-15 19:46:41.692324,0.18295703369754324
2023-01-15 19:46:41.792309,0.16798716600131114
2023-01-15 19:46:41.892308,0.16934719997193287
2023-01-15 19:46:41.992292,0.17002728165019204
2023-01-15 19:46:42.092303,0.18704335286781285
2023-01-15 19:46:42.192279,0.1863621916046411
2023-01-15 19:46:42.29235,0.1822761317690727
2023-01-15 19:46:42.392307,0.1822761317690727
2023-01-15 19:46:42.492318,0.1537172169534645
2023-01-15 19:46:42.592365,0.18976843033021362
2023-01-15 19:46:42.692407,0.1890870960949217
2023-01-15 19:46:42.792176,0.20203984687726192
2023-01-15 19:46:42.892375,0.17002728165019204
2023-01-15 19:46:42.992329,0.18704335286781285
2023-01-15 19:46:43.092298,0.1530381692638925
2023-01-15 19:46:43.192343,0.18976843033021362
2023-01-15 19:46:43.292346,0.1979478160914316
2023-01-15 19:46:43.392297,0.19931165309822133
2023-01-15 19:46:43.492332,0.16730721370074356
2023-01-15 19:46:43.59233,0.16662730451786906
2023-01-15 19:46:43.692347,0.1734283371351172
2023-01-15 19:46:43.792289,0.18431896719509067
2023-01-15 19:46:43.89234,0.16730721370074356
2023-01-15 19:46:43.99236,0.18295703369754324
2023-01-15 19:46:44.092375,0.16186914718871923
2023-01-15 19:46:44.192208,0.1727480397452997
2023-01-15 19:46:44.29239,0.18499999877239548
2023-01-15 19:46:44.392338,0.17002728165019204
2023-01-15 19:46:44.492312,0.1727480397452997
2023-01-15 19:46:44.592318,0.1754694882487593
2023-01-15 19:46:44.692306,0.17070740646255425
2023-01-15 19:46:44.792282,0.1530381692638925
2023-01-15 19:46:44.892323,0.174108677679562
2023-01-15 19:46:44.992294,0.17819162742339695
2023-01-15 19:46:45.092349,0.17683047148574899
2023-01-15 19:46:45.192281,0.174108677679562
2023-01-15 19:46:45.292305,0.14625005843569047
2023-01-15 19:46:45.392304,0.18363797883817798
2023-01-15 19:46:45.492423,0.16730721370074356
2023-01-15 19:46:45.592347,0.174108677679562
2023-01-15 19:46:45.692238,0.1822761317690727
2023-01-15 19:46:45.79235,0.1727480397452997
2023-01-15 19:46:45.892297,0.17070740646255425
2023-01-15 19:46:45.992338,0.18091445753217217
2023-01-15 19:46:46.092676,0.15235916460599774
2023-01-15 19:46:46.191938,0.22457392140872046
2023-01-15 19:46:46.292053,0.13675392481620743
2023-01-15 19:46:46.39189,0.16526761548879507
2023-01-15 19:46:46.491978,0.19385734420596504
2023-01-15 19:46:46.591889,0.18976843033021362
2023-01-15 19:46:46.69208,0.10493552885855462
2023-01-15 19:46:46.892511,0.15235916460599774
2023-01-15 19:46:46.992005,0.15915114810142364
2023-01-15 19:46:47.09189,0.10020470739583497
2023-01-15 19:46:47.191883,0.15779240698523814
2023-01-15 19:46:47.291887,0.1802336852155173
2023-01-15 19:46:47.391916,0.1734283371351172
2023-01-15 19:46:47.491983,0.16662730451786906
2023-01-15 19:46:47.592015,0.14828604009482954
2023-01-15 19:46:47.692163,0.15575461825315406
2023-01-15 19:46:47.792231,0.09817785327704957
2023-01-15 19:46:47.892089,0.16051006149166203
2023-01-15 19:46:47.992235,0.1645878356343947
2023-01-15 19:46:48.092147,0.14625005843569047
2023-01-15 19:46:48.191874,0.16051006149166203
2023-01-15 19:46:48.291898,0.09142444789961497
2023-01-15 19:46:48.391964,0.2006756633491607
2023-01-15 19:46:48.491923,0.16118958279979007
2023-01-15 19:46:48.591872,0.17138757441312333
2023-01-15 19:46:48.69179,0.17683047148574899
2023-01-15 19:46:48.791887,0.20340420371554543
2023-01-15 19:46:48.892048,0.1543963076788044
2023-01-15 19:46:48.992389,0.16186914718871923
2023-01-15 19:46:49.092374,0.13607595169266967
2023-01-15 19:46:49.192203,0.14828604009482954
2023-01-15 19:46:49.292427,0.1754694882487593
2023-01-15 19:46:49.392445,0.133364488453501
2023-01-15 19:46:49.492474,0.18431896719509067
2023-01-15 19:46:49.592401,0.1761499582817262
2023-01-15 19:46:49.692301,0.14896478664853924
2023-01-15 19:46:49.792309,0.15032240878147599
2023-01-15 19:46:49.892311,0.14692867599249154
2023-01-15 19:46:49.992313,0.14150093905168643
2023-01-15 19:46:50.092388,0.13878810180505383
2023-01-15 19:46:50.192299,0.14557148386968702
2023-01-15 19:46:50.292386,0.15507544144400368
2023-01-15 19:46:50.392333,0.15575461825315406
2023-01-15 19:46:50.492293,0.16934719997193287
2023-01-15 19:46:50.59228,0.16322840522536922
2023-01-15 19:46:50.692361,0.1543963076788044
2023-01-15 19:46:50.792315,0.14150093905168643
2023-01-15 19:46:50.8923,0.16118958279979007
2023-01-15 19:46:50.992338,0.15032240878147599
2023-01-15 19:46:51.092301,0.14285761543195497
2023-01-15 19:46:51.192296,0.15983058326023855
2023-01-15 19:46:51.292297,0.16866716142367352
2023-01-15 19:46:51.392063,0.15575461825315406
2023-01-15 19:46:51.491978,0.1863621916046411
2023-01-15 19:46:51.591921,0.16594743844858642
2023-01-15 19:46:51.691987,0.13539802149870728
2023-01-15 19:46:51.791918,0.16186914718871923
2023-01-15 19:46:51.891958,0.1754694882487593
2023-01-15 19:46:51.991918,0.16526761548879507
2023-01-15 19:46:52.09197,0.15983058326023855
2023-01-15 19:46:52.19195,0.1761499582817262
2023-01-15 19:46:52.291986,0.14285761543195497
2023-01-15 19:46:52.391954,0.15032240878147599
2023-01-15 19:46:52.491994,0.187724557367839
2023-01-15 19:46:52.59195,0.13878810180505383
2023-01-15 19:46:52.691974,0.16662730451786906
2023-01-15 19:46:52.791982,0.18976843033021362
2023-01-15 19:46:52.892035,0.11981746622897595
2023-01-15 19:46:52.99199,0.15507544144400368
2023-01-15 19:46:53.092062,0.1822761317690727
2023-01-15 19:46:53.192035,0.13539802149870728
2023-01-15 19:46:53.292,0.14285761543195497
2023-01-15 19:46:53.392014,0.1530381692638925
2023-01-15 19:46:53.492076,0.14828604009482954
2023-01-15 19:46:53.591937,0.15100128436887894
2023-01-15 19:46:53.691996,0.16594743844858642
2023-01-15 19:46:53.791925,0.17819162742339695
2023-01-15 19:46:53.891985,0.15915114810142364
2023-01-15 19:46:53.992182,0.15100128436887894
2023-01-15 19:46:54.092363,0.14489295229039612
2023-01-15 19:46:54.192306,0.14014443452026934
2023-01-15 19:46:54.292324,0.13810999986832082
2023-01-15 19:46:54.3924,0.1313313416277188
2023-01-15 19:46:54.492227,0.15507544144400368
2023-01-15 19:46:54.592339,0.1537172169534645
2023-01-15 19:46:54.692307,0.14082266530691223
2023-01-15 19:46:54.792286,0.14082266530691223
2023-01-15 19:46:54.892351,0.14421446369373303
2023-01-15 19:46:54.992283,0.13607595169266967
2023-01-15 19:46:55.092311,0.15032240878147599
2023-01-15 19:46:55.19229,0.15779240698523814
2023-01-15 19:46:55.292394,0.15032240878147599
2023-01-15 19:46:55.392238,0.1238797724774155
2023-01-15 19:46:55.492352,0.15235916460599774
2023-01-15 19:46:55.592383,0.15847175601112184
2023-01-15 19:46:55.69231,0.15983058326023855
2023-01-15 19:46:55.792354,0.14014443452026934
2023-01-15 19:46:55.892287,0.13404228988319947
2023-01-15 19:46:55.992283,0.13810999986832082
2023-01-15 19:46:56.092293,0.1537172169534645
2023-01-15 19:46:56.192391,0.13743194087339833
2023-01-15 19:46:56.292308,0.15847175601112184
2023-01-15 19:46:56.392322,0.15915114810142364
2023-01-15 19:46:56.492314,0.14896478664853924
2023-01-15 19:46:56.592332,0.15847175601112184
2023-01-15 19:46:56.692281,0.15100128436887894
2023-01-15 19:46:56.892136,0.15779240698523814
2023-01-15 19:46:56.991886,0.14557148386968702
2023-01-15 19:46:57.091853,0.13810999986832082
2023-01-15 19:46:57.191823,0.16322840522536922
2023-01-15 19:46:57.2918,0.18363797883817798
2023-01-15 19:46:57.3918,0.15711310101967813
2023-01-15 19:46:57.491793,0.0893992583711284
2023-01-15 19:46:57.591819,0.14489295229039612
2023-01-15 19:46:57.692357,0.15032240878147599
2023-01-15 19:46:57.792306,0.1184637068444242
2023-01-15 19:46:57.892326,0.15100128436887894
2023-01-15 19:46:57.992391,0.14625005843569047
2023-01-15 19:46:58.092296,0.11643338893542621
2023-01-15 19:46:58.192494,0.14150093905168643
2023-01-15 19:46:58.292474,0.16186914718871923
2023-01-15 19:46:58.392263,0.12320261431908154
2023-01-15 19:46:58.492323,0.14421446369373303
2023-01-15 19:46:58.592381,0.14557148386968702
2023-01-15 19:46:58.692324,0.1252342173669377
2023-01-15 19:46:58.792345,0.14625005843569047
2023-01-15 19:46:58.892282,0.12320261431908154
2023-01-15 19:46:58.992274,0.1564338381103479
2023-01-15 19:46:59.092394,0.14489295229039612
2023-01-15 19:46:59.192302,0.13675392481620743
2023-01-15 19:46:59.292328,0.13200901432983567
2023-01-15 19:46:59.392316,0.12252549901294145
2023-01-15 19:46:59.49234,0.14828604009482954
2023-01-15 19:46:59.592275,0.13268672993707142
2023-01-15 19:46:59.692283,0.12997612492254543
2023-01-15 19:46:59.792273,0.12726620619439336
2023-01-15 19:46:59.892269,0.12929858091134191
2023-01-15 19:46:59.992295,0.1184637068444242
2023-01-15 19:47:00.092264,0.11643338893542621
2023-01-15 19:47:00.192266,0.12320261431908154
2023-01-15 19:47:00.292398,0.12320261431908154
2023-01-15 19:47:00.392353,0.12997612492254543
2023-01-15 19:47:00.492356,0.13200901432983567
2023-01-15 19:47:00.592343,0.13946624668767665
2023-01-15 19:47:00.692339,0.13404228988319947
2023-01-15 19:47:00.792308,0.133364488453501
2023-01-15 19:47:00.892325,0.12455697349201138
2023-01-15 19:47:00.99231,0.14625005843569047
2023-01-15 19:47:01.092116,0.1530381692638925
2023-01-15 19:47:01.192351,0.1313313416277188
2023-01-15 19:47:01.292357,0.14217925575867332
2023-01-15 19:47:01.392332,0.14421446369373303
2023-01-15 19:47:01.492397,0.11372689773272367
2023-01-15 19:47:01.592396,0.11981746622897595
2023-01-15 19:47:01.692205,0.133364488453501
2023-01-15 19:47:01.792326,0.14557148386968702
2023-01-15 19:47:01.892302,0.12117139694097301
2023-01-15 19:47:01.992291,0.11508005772724043
2023-01-15 19:47:02.092304,0.12320261431908154
2023-01-15 19:47:02.192286,0.12658883371405882
2023-01-15 19:47:02.29236,0.12252549901294145
2023-01-15 19:47:02.392301,0.11643338893542621
2023-01-15 19:47:02.492286,0.13200901432983567
2023-01-15 19:47:02.592359,0.1530381692638925
2023-01-15 19:47:02.692364,0.11643338893542621
2023-01-15 19:47:02.792344,0.1313313416277188
2023-01-15 19:47:02.892295,0.13065371182664665
2023-01-15 19:47:02.992507,0.1184637068444242
2023-01-15 19:47:03.092301,0.14557148386968702
2023-01-15 19:47:03.192353,0.1184637068444242
2023-01-15 19:47:03.292332,0.13404228988319947
2023-01-15 19:47:03.392383,0.1238797724774155
2023-01-15 19:47:03.492307,0.1089921855905725
2023-01-15 19:47:03.5923,0.13675392481620743
2023-01-15 19:47:03.692311,0.13539802149870728
2023-01-15 19:47:03.792293,0.12658883371405882
2023-01-15 19:47:03.892311,0.13675392481620743
2023-01-15 19:47:03.992294,0.13268672993707142
2023-01-15 19:47:04.092374,0.12658883371405882
2023-01-15 19:47:04.192076,0.13946624668767665
2023-01-15 19:47:04.291935,0.16051006149166203
2023-01-15 19:47:04.391967,0.1184637068444242
2023-01-15 19:47:04.491923,0.1313313416277188
2023-01-15 19:47:04.592046,0.0893992583711284
2023-01-15 19:47:04.691921,0.1313313416277188
2023-01-15 19:47:04.791983,0.13946624668767665
2023-01-15 19:47:04.89191,0.1259115041062637
2023-01-15 19:47:04.992043,0.13675392481620743
2023-01-15 19:47:05.092077,0.10425956902579675
2023-01-15 19:47:05.192143,0.11237390891938694
2023-01-15 19:47:05.292003,0.12997612492254543
2023-01-15 19:47:05.391955,0.15100128436887894
2023-01-15 19:47:05.492008,0.11643338893542621
2023-01-15 19:47:05.591937,0.14285761543195497
2023-01-15 19:47:05.692015,0.11305038193043804
2023-01-15 19:47:05.791955,0.12997612492254543
2023-01-15 19:47:05.891953,0.133364488453501
2023-01-15 19:47:05.991938,0.11575670192759382
2023-01-15 19:47:06.09196,0.11372689773272367
2023-01-15 19:47:06.191993,0.1238797724774155
2023-01-15 19:47:06.292065,0.12320261431908154
2023-01-15 19:47:06.391937,0.1238797724774155
2023-01-15 19:47:06.491936,0.12862107978896348
2023-01-15 19:47:06.591991,0.09682683071479106
2023-01-15 19:47:06.69196,0.13268672993707142
2023-01-15 19:47:06.892513,0.119140565122802
2023-01-15 19:47:06.991861,0.08467530867998892
2023-01-15 19:47:07.091869,0.12320261431908154
2023-01-15 19:47:07.191808,0.16322840522536922
2023-01-15 19:47:07.291837,0.13065371182664665
2023-01-15 19:47:07.391761,0.12929858091134191
2023-01-15 19:47:07.491755,0.17138757441312333
2023-01-15 19:47:07.591854,0.11169747869551046
2023-01-15 19:47:07.692316,0.1259115041062637
2023-01-15 19:47:07.792465,0.1259115041062637
2023-01-15 19:47:07.892338,0.11034474659304477
2023-01-15 19:47:07.992384,0.10223194594229054
2023-01-15 19:47:08.092441,0.11711011875480004
2023-01-15 19:47:08.192477,0.1184637068444242
2023-01-15 19:47:08.292362,0.11372689773272367
2023-01-15 19:47:08.392327,0.10561153143386277
2023-01-15 19:47:08.492291,0.11711011875480004
2023-01-15 19:47:08.592333,0.10358365193153546
2023-01-15 19:47:08.692405,0.12455697349201138
2023-01-15 19:47:08.792149,0.12726620619439336
2023-01-15 19:47:08.892354,0.12252549901294145
2023-01-15 19:47:08.992368,0.12320261431908154
2023-01-15 19:47:09.092387,0.11508005772724043
2023-01-15 19:47:09.192309,0.11778689138977824
2023-01-15 19:47:09.292369,0.09750232064692636
2023-01-15 19:47:09.392328,0.10561153143386277
2023-01-15 19:47:09.492334,0.11508005772724043
2023-01-15 19:47:09.592332,0.1184637068444242
2023-01-15 19:47:09.692305,0.12658883371405882
2023-01-15 19:47:09.792337,0.10020470739583497
2023-01-15 19:47:09.8923,0.10628757675577537
2023-01-15 19:47:09.992301,0.11643338893542621
2023-01-15 19:47:10.092342,0.13065371182664665
2023-01-15 19:47:10.192306,0.12320261431908154
2023-01-15 19:47:10.292391,0.11643338893542621
2023-01-15 19:47:10.3923,0.11508005772724043
2023-01-15 19:47:10.492411,0.12658883371405882
2023-01-15 19:47:10.59237,0.119140565122802
2023-01-15 19:47:10.69234,0.10425956902579675
2023-01-15 19:47:10.792333,0.10831596924168975
2023-01-15 19:47:10.892301,0.10561153143386277
2023-01-15 19:47:10.992329,0.10425956902579675
2023-01-15 19:47:11.092297,0.10831596924168975
2023-01-15 19:47:11.192344,0.11981746622897595
2023-01-15 19:47:11.292311,0.13065371182664665
2023-01-15 19:47:11.392302,0.1144034563303042
2023-01-15 19:47:11.492282,0.11372689773272367
2023-01-15 19:47:11.592317,0.13743194087339833
2023-01-15 19:47:11.69235,0.11508005772724043
2023-01-15 19:47:11.792304,0.1204944101670111
2023-01-15 19:47:11.892277,0.10493552885855462
2023-01-15 19:47:11.992317,0.09615138347659562
2023-01-15 19:47:12.092328,0.10155615703920208
2023-01-15 19:47:12.192297,0.10628757675577537
2023-01-15 19:47:12.292302,0.10831596924168975
2023-01-15 19:47:12.39229,0.09952904664745454
2023-01-15 19:47:12.492318,0.1313313416277188
2023-01-15 19:47:12.592343,0.1144034563303042
2023-01-15 19:47:12.692295,0.12320261431908154
2023-01-15 19:47:12.792399,0.10425956902579675
2023-01-15 19:47:12.892285,0.11237390891938694
2023-01-15 19:47:12.992415,0.12726620619439336
2023-01-15 19:47:13.092294,0.11508005772724043
2023-01-15 19:47:13.192392,0.10628757675577537
2023-01-15 19:47:13.292359,0.11643338893542621
2023-01-15 19:47:13.392407,0.09885342860920927
2023-01-15 19:47:13.492355,0.10290777757171762
2023-01-15 19:47:13.592503,0.11169747869551046
2023-01-15 19:47:13.693287,0.09682683071479106
2023-01-15 19:47:13.792085,0.11643338893542621
2023-01-15 19:47:13.89224,0.10493552885855462
2023-01-15 19:47:13.9924,0.1089921855905725
2023-01-15 19:47:14.092391,0.11305038193043804
2023-01-15 19:47:14.192343,0.11169747869551046
2023-01-15 19:47:14.29237,0.10493552885855462
2023-01-15 19:47:14.392422,0.12117139694097301
2023-01-15 19:47:14.492361,0.10966844470633841
2023-01-15 19:47:14.592375,0.11711011875480004
2023-01-15 19:47:14.692342,0.11643338893542621
2023-01-15 19:47:14.792314,0.0920995963935338
2023-01-15 19:47:14.892329,0.11981746622897595
2023-01-15 19:47:14.992326,0.08332599241928955
2023-01-15 19:47:15.092351,0.10561153143386277
2023-01-15 19:47:15.192324,0.119140565122802
2023-01-15 19:47:15.292321,0.10831596924168975
2023-01-15 19:47:15.392334,0.11508005772724043
2023-01-15 19:47:15.49232,0.11305038193043804
2023-01-15 19:47:15.59238,0.09615138347659562
2023-01-15 19:47:15.692343,0.11575670192759382
2023-01-15 19:47:15.792332,0.10763979565563339
2023-01-15 19:47:15.892318,0.10561153143386277
2023-01-15 19:47:15.992363,0.10696366482834717
2023-01-15 19:47:16.092319,0.10088041085840059
2023-01-15 19:47:16.192345,0.1204944101670111
2023-01-15 19:47:16.292336,0.09345002138226945
2023-01-15 19:47:16.392323,0.10088041085840059
2023-01-15 19:47:16.492306,0.0893992583711284
2023-01-15 19:47:16.592357,0.10493552885855462
2023-01-15 19:47:16.692355,0.1144034563303042
2023-01-15 19:47:16.892347,0.09412529788517568
2023-01-15 19:47:16.991854,0.15507544144400368
2023-01-15 19:47:17.091856,0.10831596924168975
2023-01-15 19:47:17.191818,0.11778689138977824
2023-01-15 19:47:17.291801,0.10561153143386277
2023-01-15 19:47:17.391848,0.10628757675577537
2023-01-15 19:47:17.491799,0.14625005843569047
2023-01-15 19:47:17.591841,0.09817785327704957
2023-01-15 19:47:17.692003,0.1184637068444242
2023-01-15 19:47:17.791951,0.08130233761629486
2023-01-15 19:47:17.892046,0.13539802149870728
2023-01-15 19:47:17.991949,0.09345002138226945
2023-01-15 19:47:18.09211,0.11508005772724043
2023-01-15 19:47:18.191953,0.11711011875480004
2023-01-15 19:47:18.292087,0.09345002138226945
2023-01-15 19:47:18.391911,0.1089921855905725
2023-01-15 19:47:18.492063,0.08737445268765039
2023-01-15 19:47:18.592029,0.1144034563303042
2023-01-15 19:47:18.691997,0.09074934206727
2023-01-15 19:47:18.792003,0.09952904664745454
2023-01-15 19:47:18.891996,0.09074934206727
2023-01-15 19:47:18.991984,0.11102109125474936
2023-01-15 19:47:19.092038,0.09615138347659562
2023-01-15 19:47:19.191977,0.11169747869551046
2023-01-15 19:47:19.291961,0.08872428049924641
2023-01-15 19:47:19.391934,0.10020470739583497
2023-01-15 19:47:19.492046,0.10020470739583497
2023-01-15 19:47:19.592168,0.08535003074006296
2023-01-15 19:47:19.692319,0.12252549901294145
2023-01-15 19:47:19.792321,0.0880493452727675
2023-01-15 19:47:19.892368,0.10696366482834717
2023-01-15 19:47:19.992333,0.09412529788517568
2023-01-15 19:47:20.092325,0.08332599241928955
2023-01-15 19:47:20.19233,0.11643338893542621
2023-01-15 19:47:20.292383,0.08737445268765039
2023-01-15 19:47:20.392389,0.08197684661093542
2023-01-15 19:47:20.49233,0.09615138347659562
2023-01-15 19:47:20.592361,0.10358365193153546
2023-01-15 19:47:20.692337,0.09952904664745454
2023-01-15 19:47:20.792326,0.1184637068444242
2023-01-15 19:47:20.892305,0.11305038193043804
2023-01-15 19:47:20.992323,0.10020470739583497
2023-01-15 19:47:21.092331,0.1089921855905725
2023-01-15 19:47:21.192315,0.1204944101670111
2023-01-15 19:47:21.292379,0.10966844470633841
2023-01-15 19:47:21.392338,0.09480061706583472
2023-01-15 19:47:21.492411,0.10966844470633841
2023-01-15 19:47:21.592333,0.10493552885855462
2023-01-15 19:47:21.692305,0.09750232064692636
2023-01-15 19:47:21.792312,0.11575670192759382
2023-01-15 19:47:21.892297,0.0893992583711284
2023-01-15 19:47:21.992303,0.10290777757171762
2023-01-15 19:47:22.092328,0.09412529788517568
2023-01-15 19:47:22.192366,0.11169747869551046
2023-01-15 19:47:22.29232,0.12117139694097301
2023-01-15 19:47:22.392318,0.13472013423024282
2023-01-15 19:47:22.492311,0.10290777757171762
2023-01-15 19:47:22.592373,0.1144034563303042
2023-01-15 19:47:22.692334,0.13200901432983567
2023-01-15 19:47:22.792364,0.10763979565563339
2023-01-15 19:47:22.89231,0.10696366482834717
2023-01-15 19:47:22.992311,0.09682683071479106
2023-01-15 19:47:23.092413,0.09952904664745454
2023-01-15 19:47:23.192382,0.10628757675577537
2023-01-15 19:47:23.29227,0.12929858091134191
2023-01-15 19:47:23.392396,0.12184842655492757
2023-01-15 19:47:23.492326,0.10425956902579675
2023-01-15 19:47:23.592317,0.11305038193043804
2023-01-15 19:47:23.692329,0.1204944101670111
2023-01-15 19:47:23.792365,0.11508005772724043
2023-01-15 19:47:23.892279,0.1238797724774155
2023-01-15 19:47:23.992333,0.14150093905168643
2023-01-15 19:47:24.092374,0.10966844470633841
2023-01-15 19:47:24.192324,0.12320261431908154
2023-01-15 19:47:24.292354,0.12997612492254543
2023-01-15 19:47:24.392295,0.12320261431908154
2023-01-15 19:47:24.492371,0.13539802149870728
2023-01-15 19:47:24.592266,0.1144034563303042
2023-01-15 19:47:24.692219,0.09817785327704957
2023-01-15 19:47:24.792294,0.10966844470633841
2023-01-15 19:47:24.89233,0.12117139694097301
2023-01-15 19:47:24.99238,0.12117139694097301
2023-01-15 19:47:25.092235,0.1204944101670111
2023-01-15 19:47:25.192344,0.133364488453501
2023-01-15 19:47:25.292334,0.10425956902579675
2023-01-15 19:47:25.392375,0.10831596924168975
2023-01-15 19:47:25.492246,0.10696366482834717
2023-01-15 19:47:25.592402,0.12726620619439336
2023-01-15 19:47:25.692345,0.1184637068444242
2023-01-15 19:47:25.79225,0.1144034563303042
2023-01-15 19:47:25.892222,0.11643338893542621
2023-01-15 19:47:25.992318,0.11643338893542621
2023-01-15 19:47:26.092381,0.09277478755307049
2023-01-15 19:47:26.192313,0.1252342173669377
2023-01-15 19:47:26.29233,0.11711011875480004
2023-01-15 19:47:26.392726,0.12997612492254543
2023-01-15 19:47:26.492333,0.12320261431908154
2023-01-15 19:47:26.592365,0.12252549901294145
2023-01-15 19:47:26.692345,0.12252549901294145
2023-01-15 19:47:26.892424,0.10493552885855462
2023-01-15 19:47:26.991959,0.1259115041062637
2023-01-15 19:47:27.092254,0.10290777757171762
2023-01-15 19:47:27.19236,0.10358365193153546
2023-01-15 19:47:27.292412,0.11508005772724043
2023-01-15 19:47:27.392363,0.13878810180505383
2023-01-15 19:47:27.492324,0.1252342173669377
2023-01-15 19:47:27.592242,0.11237390891938694
2023-01-15 19:47:27.692345,0.12320261431908154
2023-01-15 19:47:27.792388,0.12184842655492757
2023-01-15 19:47:27.892225,0.14625005843569047
2023-01-15 19:47:27.992331,0.13472013423024282
2023-01-15 19:47:28.092373,0.12929858091134191
2023-01-15 19:47:28.192294,0.133364488453501
2023-01-15 19:47:28.292372,0.13404228988319947
2023-01-15 19:47:28.39236,0.1238797724774155
2023-01-15 19:47:28.492343,0.13472013423024282
2023-01-15 19:47:28.592342,0.14285761543195497
2023-01-15 19:47:28.69229,0.14421446369373303
2023-01-15 19:47:28.792321,0.15032240878147599
2023-01-15 19:47:28.892325,0.13472013423024282
2023-01-15 19:47:28.992306,0.15507544144400368
2023-01-15 19:47:29.092364,0.12862107978896348
2023-01-15 19:47:29.19231,0.13946624668767665
2023-01-15 19:47:29.292352,0.12726620619439336
2023-01-15 19:47:29.39232,0.133364488453501
2023-01-15 19:47:29.492336,0.1645878356343947
2023-01-15 19:47:29.593766,0.13607595169266967
2023-01-15 19:47:29.692509,0.14014443452026934
2023-01-15 19:47:29.792363,0.13878810180505383
2023-01-15 19:47:29.891921,0.12658883371405882
2023-01-15 19:47:29.991978,0.14964357620939217
2023-01-15 19:47:30.091943,0.14828604009482954
2023-01-15 19:47:30.19193,0.13404228988319947
2023-01-15 19:47:30.29196,0.11034474659304477
2023-01-15 19:47:30.391928,0.12862107978896348
2023-01-15 19:47:30.492017,0.14082266530691223
2023-01-15 19:47:30.591945,0.14150093905168643
2023-01-15 19:47:30.69197,0.17002728165019204
2023-01-15 19:47:30.791985,0.1238797724774155
2023-01-15 19:47:30.8919,0.14896478664853924
2023-01-15 19:47:30.991968,0.16254875466254637
2023-01-15 19:47:31.091948,0.16594743844858642
2023-01-15 19:47:31.191966,0.12117139694097301
2023-01-15 19:47:31.29198,0.13810999986832082
2023-01-15 19:47:31.391908,0.15032240878147599
2023-01-15 19:47:31.491962,0.13539802149870728
2023-01-15 19:47:31.591938,0.13607595169266967
2023-01-15 19:47:31.691978,0.12726620619439336
2023-01-15 19:47:31.791921,0.14557148386968702
2023-01-15 19:47:31.891966,0.15847175601112184
2023-01-15 19:47:31.991903,0.10696366482834717
2023-01-15 19:47:32.091922,0.14285761543195497
2023-01-15 19:47:32.191962,0.1435360180756139
2023-01-15 19:47:32.292167,0.12455697349201138
2023-01-15 19:47:32.392191,0.14421446369373303
2023-01-15 19:47:32.492373,0.15032240878147599
2023-01-15 19:47:32.592364,0.11778689138977824
2023-01-15 19:47:32.692322,0.13878810180505383
2023-01-15 19:47:32.792408,0.13810999986832082
2023-01-15 19:47:32.892276,0.14557148386968702
2023-01-15 19:47:32.992305,0.14828604009482954
2023-01-15 19:47:33.092878,0.15711310101967813
2023-01-15 19:47:33.192308,0.13878810180505383
2023-01-15 19:47:33.292343,0.14625005843569047
2023-01-15 19:47:33.392373,0.12320261431908154
2023-01-15 19:47:33.492601,0.13878810180505383
2023-01-15 19:47:33.592146,0.14285761543195497
2023-01-15 19:47:33.692139,0.14082266530691223
2023-01-15 19:47:33.792327,0.13946624668767665
2023-01-15 19:47:33.892327,0.14217925575867332
2023-01-15 19:47:33.992329,0.13200901432983567
2023-01-15 19:47:34.092354,0.11711011875480004
2023-01-15 19:47:34.192317,0.13200901432983567
2023-01-15 19:47:34.292351,0.12997612492254543
2023-01-15 19:47:34.39231,0.13946624668767665
2023-01-15 19:47:34.492288,0.1238797724774155
2023-01-15 19:47:34.592362,0.12794362155133784
2023-01-15 19:47:34.69233,0.14421446369373303
2023-01-15 19:47:34.792351,0.14150093905168643
2023-01-15 19:47:34.892285,0.133364488453501
2023-01-15 19:47:34.992301,0.1259115041062637
2023-01-15 19:47:35.092318,0.15507544144400368
2023-01-15 19:47:35.192292,0.12929858091134191
2023-01-15 19:47:35.292319,0.13810999986832082
2023-01-15 19:47:35.392309,0.15711310101967813
2023-01-15 19:47:35.492335,0.14557148386968702
2023-01-15 19:47:35.592288,0.1435360180756139
2023-01-15 19:47:35.69232,0.1543963076788044
2023-01-15 19:47:35.792304,0.1184637068444242
2023-01-15 19:47:35.892289,0.14692867599249154
2023-01-15 19:47:35.992293,0.13472013423024282
2023-01-15 19:47:36.092274,0.13946624668767665
2023-01-15 19:47:36.192293,0.12794362155133784
2023-01-15 19:47:36.292296,0.11305038193043804
2023-01-15 19:47:36.39232,0.13878810180505383
2023-01-15 19:47:36.492284,0.13946624668767665
2023-01-15 19:47:36.592314,0.11778689138977824
2023-01-15 19:47:36.692332,0.1184637068444242
2023-01-15 19:47:36.898359,0.1184637068444242
2023-01-15 19:47:36.992087,0.15100128436887894
2023-01-15 19:47:37.091844,0.16866716142367352
2023-01-15 19:47:37.191792,0.10966844470633841
2023-01-15 19:47:37.291777,0.08669960273985408
2023-01-15 19:47:37.39174,0.12184842655492757
2023-01-15 19:47:37.49179,0.18976843033021362
2023-01-15 19:47:37.591794,0.16866716142367352
2023-01-15 19:47:37.69176,0.14692867599249154
2023-01-15 19:47:37.792403,0.14150093905168643
2023-01-15 19:47:37.892284,0.119140565122802
2023-01-15 19:47:37.992381,0.14421446369373303
2023-01-15 19:47:38.092345,0.13743194087339833
2023-01-15 19:47:38.192267,0.12658883371405882
2023-01-15 19:47:38.292345,0.13878810180505383
2023-01-15 19:47:38.392257,0.14828604009482954
2023-01-15 19:47:38.492418,0.13878810180505383
2023-01-15 19:47:38.592362,0.119140565122802
2023-01-15 19:47:38.69238,0.15168020297568977
2023-01-15 19:47:38.792309,0.13472013423024282
2023-01-15 19:47:38.892323,0.1313313416277188
2023-01-15 19:47:38.992364,0.11508005772724043
2023-01-15 19:47:39.092395,0.12726620619439336
2023-01-15 19:47:39.192292,0.15032240878147599
2023-01-15 19:47:39.292293,0.14828604009482954
2023-01-15 19:47:39.392308,0.13539802149870728
2023-01-15 19:47:39.492261,0.14421446369373303
2023-01-15 19:47:39.592297,0.14014443452026934
2023-01-15 19:47:39.692274,0.14692867599249154
2023-01-15 19:47:39.792288,0.14625005843569047
2023-01-15 19:47:39.892257,0.11305038193043804
2023-01-15 19:47:39.992316,0.15168020297568977
2023-01-15 19:47:40.092294,0.1252342173669377
2023-01-15 19:47:40.192298,0.11643338893542621
2023-01-15 19:47:40.292413,0.13200901432983567
2023-01-15 19:47:40.392275,0.14760733654417585
2023-01-15 19:47:40.492278,0.13810999986832082
2023-01-15 19:47:40.592367,0.13404228988319947
2023-01-15 19:47:40.692298,0.14014443452026934
2023-01-15 19:47:40.792299,0.15032240878147599
2023-01-15 19:47:40.892291,0.12320261431908154
2023-01-15 19:47:40.992335,0.13539802149870728
2023-01-15 19:47:41.092302,0.13810999986832082
2023-01-15 19:47:41.192266,0.13675392481620743
2023-01-15 19:47:41.292288,0.13810999986832082
2023-01-15 19:47:41.39229,0.11305038193043804
2023-01-15 19:47:41.492344,0.14150093905168643
2023-01-15 19:47:41.592315,0.15711310101967813
2023-01-15 19:47:41.692308,0.12658883371405882
2023-01-15 19:47:41.792259,0.09952904664745454
2023-01-15 19:47:41.892301,0.13675392481620743
2023-01-15 19:47:41.992305,0.14150093905168643
2023-01-15 19:47:42.092321,0.133364488453501
2023-01-15 19:47:42.192261,0.14489295229039612
2023-01-15 19:47:42.292293,0.14828604009482954
2023-01-15 19:47:42.392263,0.15711310101967813
2023-01-15 19:47:42.492274,0.11981746622897595
2023-01-15 19:47:42.592326,0.13675392481620743
2023-01-15 19:47:42.691921,0.11034474659304477
2023-01-15 19:47:42.791957,0.14285761543195497
2023-01-15 19:47:42.891922,0.14625005843569047
2023-01-15 19:47:42.991908,0.1435360180756139
2023-01-15 19:47:43.091923,0.13539802149870728
2023-01-15 19:47:43.191987,0.12997612492254543
2023-01-15 19:47:43.291987,0.17070740646255425
2023-01-15 19:47:43.391919,0.14692867599249154
2023-01-15 19:47:43.49191,0.12794362155133784
2023-01-15 19:47:43.591938,0.14896478664853924
2023-01-15 19:47:43.691915,0.13268672993707142
2023-01-15 19:47:43.791945,0.11169747869551046
2023-01-15 19:47:43.891913,0.12862107978896348
2023-01-15 19:47:43.991956,0.16730721370074356
2023-01-15 19:47:44.091966,0.119140565122802
2023-01-15 19:47:44.191926,0.14082266530691223
2023-01-15 19:47:44.291935,0.15983058326023855
2023-01-15 19:47:44.391916,0.1645878356343947
2023-01-15 19:47:44.491966,0.1144034563303042
2023-01-15 19:47:44.591907,0.1204944101670111
2023-01-15 19:47:44.691909,0.133364488453501
2023-01-15 19:47:44.791904,0.14557148386968702
2023-01-15 19:47:44.8919,0.12184842655492757
2023-01-15 19:47:44.991915,0.13946624668767665
2023-01-15 19:47:45.091922,0.15032240878147599
2023-01-15 19:47:45.192094,0.11981746622897595
2023-01-15 19:47:45.2923,0.14760733654417585
2023-01-15 19:47:45.392321,0.14217925575867332
2023-01-15 19:47:45.492307,0.12252549901294145
2023-01-15 19:47:45.592335,0.13878810180505383
2023-01-15 19:47:45.692313,0.14489295229039612
2023-01-15 19:47:45.792246,0.15032240878147599
2023-01-15 19:47:45.892295,0.1238797724774155
2023-01-15 19:47:45.992306,0.13200901432983567
2023-01-15 19:47:46.092365,0.14557148386968702
2023-01-15 19:47:46.192361,0.0880493452727675
2023-01-15 19:47:46.292223,0.11372689773272367
2023-01-15 19:47:46.392291,0.14828604009482954
2023-01-15 19:47:46.492355,0.12794362155133784
2023-01-15 19:47:46.592348,0.11169747869551046
2023-01-15 19:47:46.692334,0.13200901432983567
2023-01-15 19:47:46.895304,0.10358365193153546
2023-01-15 19:47:46.991834,0.13946624668767665
2023-01-15 19:47:47.091834,0.0880493452727675
2023-01-15 19:47:47.191774,0.12862107978896348
2023-01-15 19:47:47.291761,0.1252342173669377
2023-01-15 19:47:47.391757,0.1645878356343947
2023-01-15 19:47:47.491716,0.15168020297568977
2023-01-15 19:47:47.591765,0.16322840522536922
2023-01-15 19:47:47.692283,0.11169747869551046
2023-01-15 19:47:47.792256,0.13404228988319947
2023-01-15 19:47:47.89228,0.1435360180756139
2023-01-15 19:47:47.99227,0.13472013423024282
2023-01-15 19:47:48.092287,0.12455697349201138
2023-01-15 19:47:48.19238,0.13268672993707142
2023-01-15 19:47:48.2922,0.15915114810142364
2023-01-15 19:47:48.392376,0.12997612492254543
2023-01-15 19:47:48.492305,0.12320261431908154
2023-01-15 19:47:48.592271,0.13675392481620743
2023-01-15 19:47:48.692249,0.14557148386968702
2023-01-15 19:47:48.792331,0.12726620619439336
2023-01-15 19:47:48.892269,0.12726620619439336
2023-01-15 19:47:48.992283,0.1313313416277188
2023-01-15 19:47:49.09238,0.1252342173669377
2023-01-15 19:47:49.192289,0.12929858091134191
2023-01-15 19:47:49.292304,0.09142444789961497
2023-01-15 19:47:49.392265,0.09547597892829252
2023-01-15 19:47:49.492361,0.1204944101670111
2023-01-15 19:47:49.592335,0.11575670192759382
2023-01-15 19:47:49.692259,0.13200901432983567
2023-01-15 19:47:49.79227,0.08737445268765039
2023-01-15 19:47:49.89224,0.11169747869551046
2023-01-15 19:47:49.992297,0.09547597892829252
2023-01-15 19:47:50.092276,0.10290777757171762
2023-01-15 19:47:50.192291,0.1144034563303042
2023-01-15 19:47:50.292329,0.07793043157702
2023-01-15 19:47:50.392332,0.10088041085840059
2023-01-15 19:47:50.492241,0.11169747869551046
2023-01-15 19:47:50.592358,0.11372689773272367
2023-01-15 19:47:50.692306,0.10290777757171762
2023-01-15 19:47:50.792287,0.11711011875480004
2023-01-15 19:47:50.89224,0.12726620619439336
2023-01-15 19:47:50.992264,0.09682683071479106
2023-01-15 19:47:51.092297,0.10763979565563339
2023-01-15 19:47:51.192242,0.0759077989553548
2023-01-15 19:47:51.292257,0.10425956902579675
2023-01-15 19:47:51.392249,0.12320261431908154
2023-01-15 19:47:51.492278,0.09952904664745454
2023-01-15 19:47:51.592261,0.1184637068444242
2023-01-15 19:47:51.692293,0.11102109125474936
2023-01-15 19:47:51.792282,0.08872428049924641
2023-01-15 19:47:51.892228,0.11643338893542621
2023-01-15 19:47:51.99228,0.09412529788517568
2023-01-15 19:47:52.092229,0.09142444789961497
2023-01-15 19:47:52.192243,0.10493552885855462
2023-01-15 19:47:52.292304,0.1089921855905725
2023-01-15 19:47:52.392362,0.12117139694097301
2023-01-15 19:47:52.492256,0.10763979565563339
2023-01-15 19:47:52.592317,0.10966844470633841
2023-01-15 19:47:52.692273,0.09750232064692636
2023-01-15 19:47:52.792299,0.09277478755307049
2023-01-15 19:47:52.892241,0.08332599241928955
2023-01-15 19:47:52.992238,0.09547597892829252
2023-01-15 19:47:53.092251,0.0920995963935338
2023-01-15 19:47:53.192356,0.1259115041062637
2023-01-15 19:47:53.292305,0.08062787122263004
2023-01-15 19:47:53.392038,0.08130233761629486
2023-01-15 19:47:53.492093,0.09682683071479106
2023-01-15 19:47:53.59233,0.12117139694097301
2023-01-15 19:47:53.692271,0.08737445268765039
2023-01-15 19:47:53.792249,0.08467530867998892
2023-01-15 19:47:53.892268,0.09682683071479106
2023-01-15 19:47:53.992255,0.11237390891938694
2023-01-15 19:47:54.092322,0.10020470739583497
2023-01-15 19:47:54.192277,0.11169747869551046
2023-01-15 19:47:54.292345,0.08737445268765039
2023-01-15 19:47:54.392207,0.09142444789961497
2023-01-15 19:47:54.492205,0.12929858091134191
2023-01-15 19:47:54.592235,0.09480061706583472
2023-01-15 19:47:54.692212,0.10020470739583497
2023-01-15 19:47:54.792236,0.10628757675577537
2023-01-15 19:47:54.892188,0.11711011875480004
2023-01-15 19:47:54.99224,0.11778689138977824
2023-01-15 19:47:55.092192,0.09142444789961497
2023-01-15 19:47:55.192197,0.10966844470633841
2023-01-15 19:47:55.292174,0.09345002138226945
2023-01-15 19:47:55.392027,0.09480061706583472
2023-01-15 19:47:55.49192,0.09817785327704957
2023-01-15 19:47:55.591959,0.12658883371405882
2023-01-15 19:47:55.691914,0.12726620619439336
2023-01-15 19:47:55.791899,0.12252549901294145
2023-01-15 19:47:55.891932,0.10425956902579675
2023-01-15 19:47:55.991862,0.12929858091134191
2023-01-15 19:47:56.091859,0.09142444789961497
2023-01-15 19:47:56.191925,0.11169747869551046
2023-01-15 19:47:56.292027,0.10831596924168975
2023-01-15 19:47:56.391933,0.12997612492254543
2023-01-15 19:47:56.491995,0.10628757675577537
2023-01-15 19:47:56.59192,0.13946624668767665
2023-01-15 19:47:56.691894,0.10493552885855462
2023-01-15 19:47:56.893179,0.11034474659304477
2023-01-15 19:47:56.993242,0.11981746622897595
2023-01-15 19:47:57.092,0.10831596924168975
2023-01-15 19:47:57.192114,0.07388554945202569
2023-01-15 19:47:57.291965,0.10561153143386277
2023-01-15 19:47:57.391925,0.1259115041062637
2023-01-15 19:47:57.49195,0.12997612492254543
2023-01-15 19:47:57.59202,0.0893992583711284
2023-01-15 19:47:57.691868,0.07793043157702
2023-01-15 19:47:57.791973,0.11372689773272367
2023-01-15 19:47:57.891866,0.11372689773272367
2023-01-15 19:47:57.992032,0.12794362155133784
2023-01-15 19:47:58.092303,0.1313313416277188
2023-01-15 19:47:58.192397,0.1089921855905725
2023-01-15 19:47:58.292242,0.12455697349201138
2023-01-15 19:47:58.392246,0.12658883371405882
2023-01-15 19:47:58.492279,0.11981746622897595
2023-01-15 19:47:58.592326,0.1184637068444242
2023-01-15 19:47:58.692311,0.133364488453501
2023-01-15 19:47:58.792309,0.11981746622897595
2023-01-15 19:47:58.892302,0.11981746622897595
2023-01-15 19:47:58.992273,0.12320261431908154
2023-01-15 19:47:59.092294,0.13743194087339833
2023-01-15 19:47:59.192303,0.13472013423024282
2023-01-15 19:47:59.292296,0.13946624668767665
2023-01-15 19:47:59.392345,0.13675392481620743
2023-01-15 19:47:59.492239,0.11034474659304477
2023-01-15 19:47:59.592245,0.11169747869551046
2023-01-15 19:47:59.692233,0.13878810180505383
2023-01-15 19:47:59.792361,0.133364488453501
2023-01-15 19:47:59.892266,0.12929858091134191
2023-01-15 19:47:59.992261,0.12252549901294145
2023-01-15 19:48:00.092255,0.12794362155133784
2023-01-15 19:48:00.192252,0.13065371182664665
2023-01-15 19:48:00.292354,0.12320261431908154
2023-01-15 19:48:00.392254,0.14760733654417585
2023-01-15 19:48:00.492293,0.13065371182664665
2023-01-15 19:48:00.59228,0.133364488453501
2023-01-15 19:48:00.692373,0.1564338381103479
2023-01-15 19:48:00.792098,0.14828604009482954
2023-01-15 19:48:00.892268,0.13810999986832082
2023-01-15 19:48:00.992241,0.12929858091134191
2023-01-15 19:48:01.092061,0.12117139694097301
2023-01-15 19:48:01.192209,0.14014443452026934
2023-01-15 19:48:01.292281,0.1313313416277188
2023-01-15 19:48:01.392259,0.1252342173669377
2023-01-15 19:48:01.492294,0.13539802149870728
2023-01-15 19:48:01.59227,0.14421446369373303
2023-01-15 19:48:01.692315,0.12794362155133784
2023-01-15 19:48:01.792266,0.11305038193043804
2023-01-15 19:48:01.892259,0.13675392481620743
2023-01-15 19:48:01.992259,0.14014443452026934
2023-01-15 19:48:02.09235,0.1435360180756139
2023-01-15 19:48:02.192244,0.12252549901294145
2023-01-15 19:48:02.292238,0.13810999986832082
2023-01-15 19:48:02.392252,0.14150093905168643
2023-01-15 19:48:02.492227,0.119140565122802
2023-01-15 19:48:02.592328,0.13472013423024282
2023-01-15 19:48:02.692276,0.14557148386968702
2023-01-15 19:48:02.792306,0.13810999986832082
2023-01-15 19:48:02.892253,0.13810999986832082
2023-01-15 19:48:02.992374,0.12929858091134191
2023-01-15 19:48:03.092165,0.14828604009482954
2023-01-15 19:48:03.192261,0.15915114810142364
2023-01-15 19:48:03.292278,0.133364488453501
2023-01-15 19:48:03.392251,0.12929858091134191
2023-01-15 19:48:03.49227,0.15711310101967813
2023-01-15 19:48:03.592299,0.12320261431908154
2023-01-15 19:48:03.692347,0.14625005843569047
2023-01-15 19:48:03.792268,0.11508005772724043
2023-01-15 19:48:03.892257,0.12320261431908154
2023-01-15 19:48:03.992289,0.15507544144400368
2023-01-15 19:48:04.092391,0.13472013423024282
2023-01-15 19:48:04.192346,0.14150093905168643
2023-01-15 19:48:04.292288,0.13472013423024282
2023-01-15 19:48:04.39231,0.12794362155133784
2023-01-15 19:48:04.492311,0.15032240878147599
2023-01-15 19:48:04.592376,0.14285761543195497
2023-01-15 19:48:04.692272,0.13675392481620743
2023-01-15 19:48:04.792337,0.1259115041062637
2023-01-15 19:48:04.892222,0.1435360180756139
2023-01-15 19:48:04.992249,0.13946624668767665
2023-01-15 19:48:05.092276,0.14760733654417585
2023-01-15 19:48:05.192226,0.13607595169266967
2023-01-15 19:48:05.292319,0.14150093905168643
2023-01-15 19:48:05.39226,0.12455697349201138
2023-01-15 19:48:05.492316,0.13404228988319947
2023-01-15 19:48:05.592267,0.12929858091134191
2023-01-15 19:48:05.692244,0.15100128436887894
2023-01-15 19:48:05.79225,0.12455697349201138
2023-01-15 19:48:05.892218,0.1259115041062637
2023-01-15 19:48:05.992282,0.14760733654417585
2023-01-15 19:48:06.0923,0.11643338893542621
2023-01-15 19:48:06.19223,0.11169747869551046
2023-01-15 19:48:06.292255,0.12184842655492757
2023-01-15 19:48:06.392217,0.13404228988319947
2023-01-15 19:48:06.492252,0.12929858091134191
2023-01-15 19:48:06.592314,0.12320261431908154
2023-01-15 19:48:06.692256,0.13946624668767665
2023-01-15 19:48:06.892497,0.133364488453501
2023-01-15 19:48:06.991812,0.13065371182664665
2023-01-15 19:48:07.091797,0.12794362155133784
2023-01-15 19:48:07.191765,0.13268672993707142
2023-01-15 19:48:07.291735,0.14964357620939217
2023-01-15 19:48:07.391724,0.13810999986832082
2023-01-15 19:48:07.491708,0.15235916460599774
2023-01-15 19:48:07.591752,0.133364488453501
2023-01-15 19:48:07.692235,0.14692867599249154
2023-01-15 19:48:07.792284,0.1184637068444242
2023-01-15 19:48:07.89225,0.13878810180505383
2023-01-15 19:48:07.992226,0.12794362155133784
2023-01-15 19:48:08.092258,0.14014443452026934
2023-01-15 19:48:08.19192,0.1144034563303042
2023-01-15 19:48:08.291974,0.11711011875480004
2023-01-15 19:48:08.391946,0.1313313416277188
2023-01-15 19:48:08.492027,0.11508005772724043
2023-01-15 19:48:08.591866,0.14692867599249154
2023-01-15 19:48:08.691968,0.10561153143386277
2023-01-15 19:48:08.791904,0.13675392481620743
2023-01-15 19:48:08.891971,0.14489295229039612
2023-01-15 19:48:08.991867,0.16322840522536922
2023-01-15 19:48:09.091926,0.12184842655492757
2023-01-15 19:48:09.191936,0.11508005772724043
2023-01-15 19:48:09.291929,0.14150093905168643
2023-01-15 19:48:09.391853,0.11711011875480004
2023-01-15 19:48:09.492006,0.11034474659304477
2023-01-15 19:48:09.591904,0.09412529788517568
2023-01-15 19:48:09.691867,0.1435360180756139
2023-01-15 19:48:09.791857,0.16118958279979007
2023-01-15 19:48:09.891951,0.12184842655492757
2023-01-15 19:48:09.991884,0.13200901432983567
2023-01-15 19:48:10.091885,0.12997612492254543
2023-01-15 19:48:10.191969,0.13200901432983567
2023-01-15 19:48:10.291915,0.1313313416277188
2023-01-15 19:48:10.391962,0.13810999986832082
2023-01-15 19:48:10.49185,0.13607595169266967
2023-01-15 19:48:10.592002,0.12184842655492757
2023-01-15 19:48:10.691886,0.12658883371405882
2023-01-15 19:48:10.792306,0.14150093905168643
2023-01-15 19:48:10.892251,0.13200901432983567
2023-01-15 19:48:10.992254,0.12455697349201138
2023-01-15 19:48:11.092309,0.14489295229039612
2023-01-15 19:48:11.192227,0.12726620619439336
2023-01-15 19:48:11.292301,0.10696366482834717
2023-01-15 19:48:11.392296,0.12117139694097301
2023-01-15 19:48:11.492337,0.12320261431908154
2023-01-15 19:48:11.592311,0.13675392481620743
2023-01-15 19:48:11.692272,0.12252549901294145
2023-01-15 19:48:11.792224,0.14760733654417585
2023-01-15 19:48:11.89224,0.11372689773272367
2023-01-15 19:48:11.992293,0.1184637068444242
2023-01-15 19:48:12.092235,0.1144034563303042
2023-01-15 19:48:12.192276,0.13268672993707142
2023-01-15 19:48:12.292255,0.11981746622897595
2023-01-15 19:48:12.392235,0.13607595169266967
2023-01-15 19:48:12.492224,0.13946624668767665
2023-01-15 19:48:12.592286,0.13268672993707142
2023-01-15 19:48:12.692225,0.14082266530691223
2023-01-15 19:48:12.792266,0.12794362155133784
2023-01-15 19:48:12.892223,0.13675392481620743
2023-01-15 19:48:12.992232,0.14285761543195497
2023-01-15 19:48:13.092301,0.13539802149870728
2023-01-15 19:48:13.19226,0.11643338893542621
2023-01-15 19:48:13.292244,0.1144034563303042
2023-01-15 19:48:13.39226,0.11169747869551046
2023-01-15 19:48:13.492315,0.14150093905168643
2023-01-15 19:48:13.592268,0.15168020297568977
2023-01-15 19:48:13.692408,0.14760733654417585
2023-01-15 19:48:13.792435,0.11034474659304477
2023-01-15 19:48:13.892003,0.1259115041062637
2023-01-15 19:48:13.992209,0.14285761543195497
2023-01-15 19:48:14.092315,0.10628757675577537
2023-01-15 19:48:14.192327,0.12117139694097301
2023-01-15 19:48:14.292304,0.14896478664853924
2023-01-15 19:48:14.392296,0.12117139694097301
2023-01-15 19:48:14.492277,0.10966844470633841
2023-01-15 19:48:14.59231,0.13878810180505383
2023-01-15 19:48:14.692275,0.15032240878147599
2023-01-15 19:48:14.792288,0.13743194087339833
2023-01-15 19:48:14.892257,0.10696366482834717
2023-01-15 19:48:14.992312,0.14489295229039612
2023-01-15 19:48:15.092265,0.14285761543195497
2023-01-15 19:48:15.192263,0.12658883371405882
2023-01-15 19:48:15.292261,0.12658883371405882
2023-01-15 19:48:15.392319,0.13810999986832082
2023-01-15 19:48:15.492274,0.12320261431908154
2023-01-15 19:48:15.592262,0.13268672993707142
2023-01-15 19:48:15.692271,0.11372689773272367
2023-01-15 19:48:15.79226,0.12320261431908154
2023-01-15 19:48:15.892265,0.12862107978896348
2023-01-15 19:48:15.992242,0.12455697349201138
2023-01-15 19:48:16.092288,0.1435360180756139
2023-01-15 19:48:16.192244,0.12794362155133784
2023-01-15 19:48:16.292294,0.1252342173669377
2023-01-15 19:48:16.39226,0.12252549901294145
2023-01-15 19:48:16.492261,0.13472013423024282
2023-01-15 19:48:16.592329,0.13268672993707142
2023-01-15 19:48:16.692239,0.13946624668767665
2023-01-15 19:48:16.892185,0.11305038193043804
2023-01-15 19:48:16.991804,0.15847175601112184
2023-01-15 19:48:17.0918,0.09547597892829252
2023-01-15 19:48:17.191734,0.08062787122263004
2023-01-15 19:48:17.291737,0.12997612492254543
2023-01-15 19:48:17.391701,0.14082266530691223
2023-01-15 19:48:17.491755,0.1537172169534645
2023-01-15 19:48:17.591755,0.11372689773272367
2023-01-15 19:48:17.692327,0.13810999986832082
2023-01-15 19:48:17.792283,0.1238797724774155
2023-01-15 19:48:17.892328,0.13472013423024282
2023-01-15 19:48:17.99228,0.12997612492254543
2023-01-15 19:48:18.092311,0.14760733654417585
2023-01-15 19:48:18.192262,0.119140565122802
2023-01-15 19:48:18.292366,0.11508005772724043
2023-01-15 19:48:18.392297,0.12252549901294145
2023-01-15 19:48:18.492286,0.13065371182664665
2023-01-15 19:48:18.592245,0.15032240878147599
2023-01-15 19:48:18.692301,0.15507544144400368
2023-01-15 19:48:18.792261,0.12252549901294145
2023-01-15 19:48:18.892256,0.1238797724774155
2023-01-15 19:48:18.992223,0.12929858091134191
2023-01-15 19:48:19.092253,0.1543963076788044
2023-01-15 19:48:19.192295,0.13878810180505383
2023-01-15 19:48:19.292334,0.1204944101670111
2023-01-15 19:48:19.392239,0.12997612492254543
2023-01-15 19:48:19.492238,0.13539802149870728
2023-01-15 19:48:19.592298,0.13404228988319947
2023-01-15 19:48:19.692278,0.12997612492254543
2023-01-15 19:48:19.792247,0.13200901432983567
2023-01-15 19:48:19.892239,0.12252549901294145
2023-01-15 19:48:19.992251,0.13404228988319947
2023-01-15 19:48:20.092231,0.11711011875480004
2023-01-15 19:48:20.192207,0.12455697349201138
2023-01-15 19:48:20.292241,0.133364488453501
2023-01-15 19:48:20.392298,0.12929858091134191
2023-01-15 19:48:20.492301,0.12794362155133784
2023-01-15 19:48:20.592251,0.1238797724774155
2023-01-15 19:48:20.69226,0.14014443452026934
2023-01-15 19:48:20.792232,0.13810999986832082
2023-01-15 19:48:20.892306,0.1313313416277188
2023-01-15 19:48:20.991917,0.13743194087339833
2023-01-15 19:48:21.091881,0.14217925575867332
2023-01-15 19:48:21.19191,0.1184637068444242
2023-01-15 19:48:21.291915,0.13268672993707142
2023-01-15 19:48:21.39192,0.13743194087339833
2023-01-15 19:48:21.491874,0.08669960273985408
2023-01-15 19:48:21.591961,0.13472013423024282
2023-01-15 19:48:21.69186,0.15711310101967813
2023-01-15 19:48:21.791908,0.10358365193153546
2023-01-15 19:48:21.89184,0.15983058326023855
2023-01-15 19:48:21.991918,0.09750232064692636
2023-01-15 19:48:22.09187,0.1144034563303042
2023-01-15 19:48:22.192296,0.12320261431908154
2023-01-15 19:48:22.291944,0.10290777757171762
2023-01-15 19:48:22.39195,0.12794362155133784
2023-01-15 19:48:22.491902,0.13472013423024282
2023-01-15 19:48:22.591968,0.14150093905168643
2023-01-15 19:48:22.691891,0.11981746622897595
2023-01-15 19:48:22.792157,0.13404228988319947
2023-01-15 19:48:22.891909,0.1537172169534645
2023-01-15 19:48:22.991948,0.11508005772724043
2023-01-15 19:48:23.091892,0.11575670192759382
2023-01-15 19:48:23.191991,0.14421446369373303
2023-01-15 19:48:23.291922,0.1543963076788044
2023-01-15 19:48:23.391965,0.13268672993707142
2023-01-15 19:48:23.491963,0.14692867599249154
2023-01-15 19:48:23.592302,0.11778689138977824
2023-01-15 19:48:23.692343,0.13675392481620743
2023-01-15 19:48:23.792307,0.10831596924168975
2023-01-15 19:48:23.892171,0.13539802149870728
2023-01-15 19:48:23.992344,0.14421446369373303
2023-01-15 19:48:24.09232,0.12929858091134191
2023-01-15 19:48:24.192321,0.12320261431908154
2023-01-15 19:48:24.292326,0.11508005772724043
2023-01-15 19:48:24.392196,0.12862107978896348
2023-01-15 19:48:24.492278,0.10561153143386277
2023-01-15 19:48:24.59222,0.1259115041062637
2023-01-15 19:48:24.692272,0.11034474659304477
2023-01-15 19:48:24.792291,0.12726620619439336
2023-01-15 19:48:24.892267,0.10831596924168975
2023-01-15 19:48:24.992278,0.12252549901294145
2023-01-15 19:48:25.092298,0.1252342173669377
2023-01-15 19:48:25.192276,0.12455697349201138
2023-01-15 19:48:25.2923,0.1144034563303042
2023-01-15 19:48:25.392482,0.12455697349201138
2023-01-15 19:48:25.492237,0.10223194594229054
2023-01-15 19:48:25.592335,0.13268672993707142
2023-01-15 19:48:25.692428,0.06782109856383481
2023-01-15 19:48:25.792182,0.12117139694097301
2023-01-15 19:48:25.892269,0.1238797724774155
2023-01-15 19:48:25.992253,0.13675392481620743
2023-01-15 19:48:26.092274,0.1252342173669377
2023-01-15 19:48:26.192271,0.12997612492254543
2023-01-15 19:48:26.292248,0.13810999986832082
2023-01-15 19:48:26.392276,0.10561153143386277
2023-01-15 19:48:26.492275,0.1204944101670111
2023-01-15 19:48:26.592289,0.1204944101670111
2023-01-15 19:48:26.692275,0.10425956902579675
2023-01-15 19:48:26.894543,0.15507544144400368
2023-01-15 19:48:26.992167,0.13539802149870728
2023-01-15 19:48:27.0918,0.1184637068444242
2023-01-15 19:48:27.191783,0.12252549901294145
2023-01-15 19:48:27.291718,0.15779240698523814
2023-01-15 19:48:27.39172,0.0651268927617654
2023-01-15 19:48:27.491747,0.11575670192759382
2023-01-15 19:48:27.591827,0.16866716142367352
2023-01-15 19:48:27.691735,0.06176009182480687
2023-01-15 19:48:27.792337,0.1089921855905725
2023-01-15 19:48:27.892033,0.10628757675577537
2023-01-15 19:48:27.992379,0.14896478664853924
2023-01-15 19:48:28.092236,0.12320261431908154
2023-01-15 19:48:28.192216,0.11778689138977824
2023-01-15 19:48:28.292375,0.12117139694097301
2023-01-15 19:48:28.392279,0.12320261431908154
2023-01-15 19:48:28.492223,0.11169747869551046
2023-01-15 19:48:28.592287,0.14489295229039612
2023-01-15 19:48:28.692283,0.09952904664745454
2023-01-15 19:48:28.79243,0.1204944101670111
2023-01-15 19:48:28.892402,0.11778689138977824
2023-01-15 19:48:28.992276,0.13946624668767665
2023-01-15 19:48:29.092274,0.11981746622897595
2023-01-15 19:48:29.192341,0.11237390891938694
2023-01-15 19:48:29.29226,0.1144034563303042
2023-01-15 19:48:29.39225,0.11778689138977824
2023-01-15 19:48:29.492281,0.13675392481620743
2023-01-15 19:48:29.592295,0.119140565122802
2023-01-15 19:48:29.692277,0.1204944101670111
2023-01-15 19:48:29.792229,0.09615138347659562
2023-01-15 19:48:29.892218,0.11711011875480004
2023-01-15 19:48:29.992231,0.11372689773272367
2023-01-15 19:48:30.092264,0.1259115041062637
2023-01-15 19:48:30.192214,0.12794362155133784
2023-01-15 19:48:30.292329,0.11643338893542621
2023-01-15 19:48:30.392236,0.12794362155133784
2023-01-15 19:48:30.492214,0.14625005843569047
2023-01-15 19:48:30.59226,0.1252342173669377
2023-01-15 19:48:30.692291,0.1238797724774155
2023-01-15 19:48:30.792286,0.11034474659304477
2023-01-15 19:48:30.8922,0.12320261431908154
2023-01-15 19:48:30.99225,0.10696366482834717
2023-01-15 19:48:31.092222,0.10763979565563339
2023-01-15 19:48:31.192197,0.10763979565563339
2023-01-15 19:48:31.292254,0.11034474659304477
2023-01-15 19:48:31.392198,0.12658883371405882
2023-01-15 19:48:31.492214,0.12117139694097301
2023-01-15 19:48:31.592257,0.11102109125474936
2023-01-15 19:48:31.692333,0.13607595169266967
2023-01-15 19:48:31.792277,0.1252342173669377
2023-01-15 19:48:31.892251,0.10966844470633841
2023-01-15 19:48:31.992264,0.13200901432983567
2023-01-15 19:48:32.092223,0.133364488453501
2023-01-15 19:48:32.192246,0.11169747869551046
2023-01-15 19:48:32.29222,0.13539802149870728
2023-01-15 19:48:32.392329,0.133364488453501
2023-01-15 19:48:32.492283,0.14557148386968702
2023-01-15 19:48:32.592315,0.11102109125474936
2023-01-15 19:48:32.692218,0.1435360180756139
2023-01-15 19:48:32.792362,0.14557148386968702
2023-01-15 19:48:32.891935,0.12997612492254543
2023-01-15 19:48:32.991913,0.1530381692638925
2023-01-15 19:48:33.092314,0.13810999986832082
2023-01-15 19:48:33.192233,0.15779240698523814
2023-01-15 19:48:33.292326,0.14421446369373303
2023-01-15 19:48:33.392144,0.13607595169266967
2023-01-15 19:48:33.492578,0.13743194087339833
2023-01-15 19:48:33.592155,0.1537172169534645
2023-01-15 19:48:33.692022,0.15779240698523814
2023-01-15 19:48:33.792335,0.133364488453501
2023-01-15 19:48:33.891718,0.133364488453501
2023-01-15 19:48:33.991701,0.14828604009482954
2023-01-15 19:48:34.091714,0.17819162742339695
2023-01-15 19:48:34.191738,0.17955295609457714
2023-01-15 19:48:34.291723,0.11305038193043804
2023-01-15 19:48:34.391691,0.15575461825315406
2023-01-15 19:48:34.491672,0.15168020297568977
2023-01-15 19:48:34.591897,0.16322840522536922
2023-01-15 19:48:34.691872,0.16934719997193287
2023-01-15 19:48:34.79185,0.1863621916046411
2023-01-15 19:48:34.891938,0.15100128436887894
2023-01-15 19:48:34.991824,0.15507544144400368
2023-01-15 19:48:35.091882,0.1238797724774155
2023-01-15 19:48:35.191972,0.15032240878147599
2023-01-15 19:48:35.291876,0.16390809888128582
2023-01-15 19:48:35.391897,0.13675392481620743
2023-01-15 19:48:35.491864,0.14760733654417585
2023-01-15 19:48:35.591877,0.16594743844858642
2023-01-15 19:48:35.6919,0.1720677855060035
2023-01-15 19:48:35.791886,0.16526761548879507
2023-01-15 19:48:35.891998,0.15575461825315406
2023-01-15 19:48:35.991888,0.14150093905168643
2023-01-15 19:48:36.092086,0.15235916460599774
2023-01-15 19:48:36.191887,0.20272200363056678
2023-01-15 19:48:36.291952,0.1734283371351172
2023-01-15 19:48:36.391928,0.17070740646255425
2023-01-15 19:48:36.492325,0.15507544144400368
2023-01-15 19:48:36.592259,0.16934719997193287
2023-01-15 19:48:36.692166,0.16254875466254637
