0.0030443668365478516
0.0013279914855957031
0.0014297962188720703
0.0013117790222167969
0.001308441162109375
0.0012891292572021484
0.0013642311096191406
0.0012784004211425781
0.0013580322265625
0.0012962818145751953
0.0015246868133544922
0.0015192031860351562
0.001550912857055664
0.0015125274658203125
0.0015912055969238281
0.0017724037170410156
0.0017039775848388672
0.0025115013122558594
0.0017061233520507812
0.001710653305053711
0.001802682876586914
0.0018122196197509766
0.0018017292022705078
0.0018444061279296875
0.0022897720336914062
0.0018279552459716797
0.002167940139770508
0.0022678375244140625
0.0017900466918945312
0.0017657279968261719
0.0015339851379394531
0.001470804214477539
0.0014696121215820312
0.001451730728149414
0.0013952255249023438
0.001392364501953125
0.0014789104461669922
0.0015251636505126953
0.001447439193725586
0.0014414787292480469
0.0015704631805419922
0.0014126300811767578
0.0013871192932128906
0.0013976097106933594
0.0014603137969970703
0.0014297962188720703
0.001455545425415039
0.0015079975128173828
0.0014836788177490234
0.0019016265869140625
0.0017490386962890625
0.0015971660614013672
0.0017859935760498047
0.002880096435546875
0.001615285873413086
0.001817464828491211
0.0019032955169677734
0.0017621517181396484
0.002316713333129883
0.001882791519165039
0.00250244140625
0.0017614364624023438
0.0017232894897460938
0.0017406940460205078
0.002129793167114258
0.0017707347869873047
0.0014688968658447266
0.0014567375183105469
0.0012674331665039062
0.0012612342834472656
0.0014119148254394531
0.0014281272888183594
0.0013985633850097656
0.001264333724975586
0.001283884048461914
0.0012390613555908203
0.0012631416320800781
0.0012564659118652344
0.001253366470336914
0.0012729167938232422
0.001230001449584961
0.0012600421905517578
0.0012421607971191406
0.0012276172637939453
0.00124359130859375
0.001241922378540039
0.0012371540069580078
0.0012259483337402344
0.0013599395751953125
0.0014138221740722656
0.00144195556640625
0.0014235973358154297
0.0015938282012939453
0.001512289047241211
0.0014507770538330078
0.0014510154724121094
0.0015213489532470703
0.0015120506286621094
0.0014100074768066406
0.0014028549194335938
0.0012662410736083984
0.0016515254974365234
0.0017931461334228516
0.001741170883178711
0.001695394515991211
0.0017845630645751953
0.0014433860778808594
0.0014591217041015625
0.0015480518341064453
0.0014162063598632812
0.001399993896484375
0.0012810230255126953
0.0012166500091552734
0.0014319419860839844
0.0012423992156982422
0.0012078285217285156
0.0017614364624023438
0.0016894340515136719
0.0015702247619628906
0.0015625953674316406
0.0015604496002197266
0.0015566349029541016
0.0016682147979736328
0.001611948013305664
0.001527547836303711
0.0015783309936523438
0.0015606880187988281
0.0014357566833496094
0.001477956771850586
0.001705169677734375
0.0014371871948242188
0.0014314651489257812
0.0016126632690429688
0.0014204978942871094
0.0014221668243408203
0.0014672279357910156
0.0015077590942382812
0.001422882080078125
0.008204221725463867
0.0017635822296142578
0.001634359359741211
0.0014307498931884766
0.0017399787902832031
0.0016906261444091797
0.0016474723815917969
0.0016431808471679688
0.0016269683837890625
0.001485586166381836
0.0014426708221435547
0.0014171600341796875
0.0014913082122802734
0.0014657974243164062
0.0017364025115966797
0.0017192363739013672
0.001767873764038086
0.0019474029541015625
0.0016639232635498047
0.0016813278198242188
0.0017955303192138672
0.0015454292297363281
0.0014750957489013672
0.0015752315521240234
0.0019769668579101562
0.0013701915740966797
0.0013270378112792969
0.0013396739959716797
0.0014116764068603516
0.0014214515686035156
0.001317739486694336
0.0015485286712646484
0.0013225078582763672
0.0021522045135498047
0.0015668869018554688
0.0014235973358154297
0.0016112327575683594
0.001459360122680664
0.0013206005096435547
0.0013322830200195312
0.0013163089752197266
0.001316070556640625
0.0021049976348876953
0.0023953914642333984
0.002117156982421875
0.0020897388458251953
0.002280712127685547
0.0020308494567871094
0.0020461082458496094
0.0015778541564941406
0.001772165298461914
0.0029222965240478516
0.0015447139739990234
0.00151824951171875
0.0016071796417236328
0.0016252994537353516
0.001436471939086914
0.001783132553100586
0.0015149116516113281
0.001420736312866211
0.0014688968658447266
0.001749277114868164
0.0014491081237792969
0.0014278888702392578
0.0014286041259765625
0.0014569759368896484
0.0016150474548339844
0.0016286373138427734
0.0014410018920898438
0.0014197826385498047
0.0014333724975585938
0.0014264583587646484
0.0014400482177734375
0.0016605854034423828
0.0015227794647216797
0.0016188621520996094
0.001420736312866211
0.0017025470733642578
0.00146484375
0.0016117095947265625
0.0014185905456542969
0.0014247894287109375
0.0014088153839111328
0.0016856193542480469
0.00197601318359375
0.001981973648071289
0.0021898746490478516
0.0020627975463867188
0.0020422935485839844
0.0022411346435546875
0.0024232864379882812
0.0019936561584472656
0.0023469924926757812
0.001984119415283203
0.002022981643676758
0.002076387405395508
0.002396821975708008
0.002066373825073242
0.0019838809967041016
0.002155303955078125
0.002253293991088867
0.0024421215057373047
0.0018582344055175781
0.0018568038940429688
0.0022830963134765625
0.002061128616333008
0.0025577545166015625
0.0021774768829345703
0.002841949462890625
0.0025331974029541016
0.0018668174743652344
0.001874685287475586
0.0030527114868164062
0.002969026565551758
0.0027124881744384766
0.0014333724975585938
0.0014448165893554688
0.0016889572143554688
0.0020303726196289062
0.00177764892578125
0.0015397071838378906
0.0014216899871826172
0.002132892608642578
0.004561662673950195
0.0015914440155029297
0.0017521381378173828
0.0015916824340820312
0.0013804435729980469
0.0014433860778808594
0.0015025138854980469
0.0016393661499023438
0.002299785614013672
0.002436399459838867
0.0018191337585449219
0.004126071929931641
0.0022649765014648438
0.001367807388305664
0.0015597343444824219
0.0014240741729736328
0.001608133316040039
0.0014417171478271484
0.0014488697052001953
0.0016286373138427734
0.0014262199401855469
0.0014567375183105469
0.001425027847290039
0.001584768295288086
0.001562356948852539
0.0015192031860351562
0.00142669677734375
0.0021250247955322266
0.0018854141235351562
0.0019385814666748047
0.0018608570098876953
0.0018644332885742188
0.002063274383544922
0.002275228500366211
0.0020530223846435547
0.0021708011627197266
0.002012968063354492
0.0018398761749267578
0.0018246173858642578
0.0018568038940429688
0.0018470287322998047
0.0018286705017089844
0.0017852783203125
0.0017790794372558594
0.0018303394317626953
0.001962900161743164
0.001928567886352539
0.0020449161529541016
0.0019354820251464844
0.0018842220306396484
0.0018925666809082031
0.0018723011016845703
0.0019376277923583984
0.0019145011901855469
0.001917123794555664
0.0018050670623779297
0.0019092559814453125
0.0023446083068847656
0.0024619102478027344
0.002244234085083008
0.0022537708282470703
0.0021424293518066406
0.0016326904296875
0.0017938613891601562
0.0018460750579833984
0.0017201900482177734
0.0018227100372314453
0.0015091896057128906
0.0018193721771240234
0.0017290115356445312
0.0015113353729248047
0.0014147758483886719
0.0016171932220458984
0.0017695426940917969
0.0016083717346191406
0.0019729137420654297
0.0019104480743408203
0.0015158653259277344
0.0024330615997314453
0.0017981529235839844
0.001863718032836914
0.0021066665649414062
0.002684354782104492
0.0015430450439453125
0.001859426498413086
0.0015740394592285156
0.001402139663696289
0.0016422271728515625
0.0014009475708007812
0.0017979145050048828
0.0014438629150390625
0.0017213821411132812
0.001653432846069336
0.0020303726196289062
0.0020339488983154297
0.0018947124481201172
0.0020487308502197266
0.0016324520111083984
0.0019714832305908203
0.0023195743560791016
0.002019643783569336
0.0017578601837158203
0.0022232532501220703
0.0023145675659179688
0.0020928382873535156
0.0019450187683105469
0.0014972686767578125
0.001508951187133789
0.0015420913696289062
0.0016636848449707031
0.0019309520721435547
0.0014495849609375
0.0016057491302490234
0.001638174057006836
0.0016255378723144531
0.0017309188842773438
0.0016779899597167969
0.0014405250549316406
0.0014541149139404297
0.0013587474822998047
0.0014333724975585938
0.0013828277587890625
0.001356363296508789
0.001348257064819336
0.0015764236450195312
0.0013968944549560547
0.0014240741729736328
0.001547098159790039
0.001500844955444336
0.0016982555389404297
0.0016050338745117188
0.001589059829711914
0.0014767646789550781
0.001546621322631836
0.001519918441772461
0.0014913082122802734
0.0013613700866699219
0.0014147758483886719
0.002101421356201172
0.002349376678466797
0.001451730728149414
0.0015897750854492188
0.001596689224243164
0.0014576911926269531
0.0014655590057373047
0.0014522075653076172
0.001561880111694336
0.0015828609466552734
0.0015692710876464844
0.0016086101531982422
0.0018413066864013672
0.002066373825073242
0.0017538070678710938
0.0015718936920166016
0.001428365707397461
0.0015501976013183594
0.0015625953674316406
0.0015134811401367188
0.001605987548828125
0.0015845298767089844
0.0020329952239990234
0.001722574234008789
0.0020246505737304688
0.0015032291412353516
0.001440286636352539
0.0015904903411865234
0.0017704963684082031
0.0014805793762207031
0.0016431808471679688
0.0018792152404785156
0.0014476776123046875
0.0019931793212890625
0.0015764236450195312
0.0016601085662841797
0.0014944076538085938
0.0014722347259521484
0.0015604496002197266
0.0018529891967773438
0.0014657974243164062
0.005022287368774414
0.0015118122100830078
0.0014417171478271484
0.0016963481903076172
0.001934051513671875
0.001505136489868164
0.002882242202758789
0.002261638641357422
0.0014889240264892578
0.0016551017761230469
0.0014445781707763672
0.0016908645629882812
0.0015323162078857422
0.0015590190887451172
0.0017426013946533203
0.0014069080352783203
0.0017364025115966797
0.0017714500427246094
0.0015497207641601562
0.0015492439270019531
0.0015654563903808594
0.0017173290252685547
0.0017409324645996094
0.0014941692352294922
0.00142669677734375
0.001566171646118164
0.0014178752899169922
0.0015993118286132812
0.001451253890991211
0.0014085769653320312
0.0014209747314453125
0.0013926029205322266
0.0012905597686767578
0.0012311935424804688
0.001203775405883789
0.0013840198516845703
0.0012264251708984375
0.0012462139129638672
0.0012059211730957031
0.0012640953063964844
0.0012273788452148438
0.0012183189392089844
0.0011854171752929688
0.0012967586517333984
0.001191854476928711
0.001332998275756836
0.0013854503631591797
0.0014050006866455078
0.0013701915740966797
0.0014088153839111328
0.0012493133544921875
0.00122833251953125
0.0013773441314697266
0.0013375282287597656
0.0012242794036865234
0.0012156963348388672
0.0011830329895019531
0.0011799335479736328
0.0011754035949707031
0.001178741455078125
0.0011904239654541016
0.0011796951293945312
0.0012047290802001953
0.0014107227325439453
0.0012509822845458984
0.0017800331115722656
0.0021440982818603516
0.00394892692565918
0.0019526481628417969
0.0018489360809326172
0.0014386177062988281
0.0013644695281982422
0.0013816356658935547
0.0013773441314697266
0.0013921260833740234
0.0018951892852783203
0.0016047954559326172
0.001390695571899414
0.0013625621795654297
0.0015597343444824219
0.0016207695007324219
0.0015826225280761719
0.0015575885772705078
0.0016334056854248047
0.00156402587890625
0.0015621185302734375
0.0014722347259521484
0.001468658447265625
0.0014600753784179688
0.0014607906341552734
0.002102375030517578
0.00208282470703125
0.00208282470703125
0.002079486846923828
0.002092599868774414
0.004633903503417969
0.0019969940185546875
0.001947641372680664
0.0019867420196533203
0.0020973682403564453
0.0013709068298339844
0.0012156963348388672
0.001194000244140625
0.0017693042755126953
0.001374959945678711
0.0012323856353759766
0.001199960708618164
0.0011920928955078125
0.001219034194946289
0.0011904239654541016
0.0011799335479736328
0.0011801719665527344
0.0011758804321289062
0.0012133121490478516
0.0011906623840332031
0.0011785030364990234
0.0011987686157226562
0.0011801719665527344
0.0011730194091796875
0.0011932849884033203
0.001173257827758789
0.0011708736419677734
0.0011677742004394531
0.0011701583862304688
0.0011682510375976562
0.0011706352233886719
0.0011668205261230469
0.0011687278747558594
0.001186370849609375
0.0011684894561767578
0.0015997886657714844
0.0015094280242919922
0.0014393329620361328
0.0014350414276123047
0.001432657241821289
0.0014383792877197266
0.0021631717681884766
0.002147197723388672
0.002145528793334961
0.008644819259643555
0.0020809173583984375
0.0015132427215576172
0.0013773441314697266
0.001331329345703125
0.0013191699981689453
0.0014541149139404297
0.0016701221466064453
0.0016367435455322266
0.00173187255859375
0.0016465187072753906
0.0015251636505126953
0.001459360122680664
0.001447439193725586
0.0016560554504394531
0.0016438961029052734
0.0014481544494628906
0.001743316650390625
0.001753091812133789
0.0017228126525878906
0.0017268657684326172
0.0017192363739013672
0.0017881393432617188
0.0018985271453857422
0.0019028186798095703
0.001918792724609375
0.0019164085388183594
0.0019538402557373047
0.0017647743225097656
0.0017294883728027344
0.0017151832580566406
0.0017437934875488281
0.0019490718841552734
0.002068758010864258
0.0020678043365478516
0.0020601749420166016
0.0020503997802734375
0.002051830291748047
0.0018761157989501953
0.0018482208251953125
0.0018482208251953125
0.001840353012084961
0.0018460750579833984
0.0018482208251953125
0.0018444061279296875
0.00183868408203125
0.0018377304077148438
0.0018470287322998047
0.001893758773803711
0.0018918514251708984
0.0018701553344726562
0.0018792152404785156
0.0018794536590576172
0.0019092559814453125
0.0018761157989501953
0.0018694400787353516
0.0018703937530517578
0.0018694400787353516
0.0019044876098632812
0.0018818378448486328
0.0018832683563232422
0.0018644332885742188
0.0018646717071533203
0.0018665790557861328
0.0018944740295410156
0.0018651485443115234
0.0018780231475830078
0.0018680095672607422
0.0018687248229980469
0.0018727779388427734
0.0018775463104248047
0.0018725395202636719
0.0018846988677978516
0.0018613338470458984
0.0018703937530517578
0.0019016265869140625
0.0018770694732666016
0.0018723011016845703
0.0018672943115234375
0.0018699169158935547
0.001867055892944336
0.0018758773803710938
0.0019099712371826172
0.0018775463104248047
0.0018830299377441406
0.0019953250885009766
0.0019006729125976562
0.001895904541015625
0.0018851757049560547
0.001882314682006836
0.0018782615661621094
0.0018742084503173828
0.0018682479858398438
0.001981019973754883
0.0020041465759277344
0.0019037723541259766
0.0018715858459472656
0.0018696784973144531
0.0018763542175292969
0.0019083023071289062
0.0018718242645263672
0.0018787384033203125
0.0018765926361083984
0.0018758773803710938
0.0018756389617919922
0.001916646957397461
0.0018949508666992188
0.001870870590209961
0.0018684864044189453
0.0018661022186279297
0.00189208984375
0.001874685287475586
0.0018682479858398438
0.0019011497497558594
0.0019903182983398438
0.002014636993408203
0.0019676685333251953
0.0019214153289794922
0.0019524097442626953
0.001886606216430664
0.0018913745880126953
0.0018775463104248047
0.0018801689147949219
0.0018763542175292969
0.0019278526306152344
0.0019478797912597656
0.0018956661224365234
0.0019779205322265625
0.0019099712371826172
0.0019259452819824219
0.0019919872283935547
0.0019016265869140625
0.001880645751953125
0.0019254684448242188
0.001894235610961914
0.0019075870513916016
0.0018968582153320312
0.0019130706787109375
0.0018954277038574219
0.0019030570983886719
0.0019114017486572266
0.001956462860107422
0.0018999576568603516
0.0019507408142089844
0.0019009113311767578
0.001886606216430664
0.001901865005493164
0.0019567012786865234
0.0019268989562988281
0.0019180774688720703
0.0019047260284423828
0.0019142627716064453
0.002027273178100586
0.0019443035125732422
0.001962900161743164
0.001963376998901367
0.0019304752349853516
0.0019295215606689453
0.0018873214721679688
0.0018897056579589844
0.0019392967224121094
0.0018966197967529297
0.0018951892852783203
0.002138853073120117
0.0019481182098388672
0.0019071102142333984
0.0019485950469970703
0.0018870830535888672
0.00188446044921875
0.001882314682006836
0.0018775463104248047
0.0018749237060546875
0.0018832683563232422
0.0018820762634277344
0.001871347427368164
0.001980304718017578
0.0019106864929199219
0.0018944740295410156
0.0019009113311767578
0.00188446044921875
0.0018777847290039062
0.0018885135650634766
0.0019254684448242188
0.001878499984741211
0.0018911361694335938
0.001911163330078125
0.00188446044921875
0.0018982887268066406
0.0018706321716308594
0.0018742084503173828
0.001874685287475586
0.0018672943115234375
0.0019011497497558594
0.0018775463104248047
0.0019059181213378906
0.0018832683563232422
0.0018763542175292969
0.001920461654663086
0.0019073486328125
0.0018787384033203125
0.0018737316131591797
0.0018763542175292969
0.0018775463104248047
0.001874685287475586
0.0018715858459472656
0.0018794536590576172
0.0018749237060546875
0.0018763542175292969
0.0019042491912841797
0.0019054412841796875
0.0018963813781738281
0.0018768310546875
0.0018749237060546875
0.0018787384033203125
0.0018994808197021484
0.0018825531005859375
0.001890420913696289
0.0018794536590576172
0.0019068717956542969
0.001889944076538086
0.0019381046295166016
0.0019445419311523438
0.0019328594207763672
0.001961231231689453
0.0018956661224365234
0.0018811225891113281
0.0018815994262695312
0.0018799304962158203
0.0018775463104248047
0.0018804073333740234
0.0018880367279052734
0.0018932819366455078
0.0018818378448486328
0.0019028186798095703
0.002432107925415039
0.002223968505859375
0.002157449722290039
0.0019659996032714844
0.0019254684448242188
0.0018093585968017578
0.0017719268798828125
0.00177764892578125
0.0017898082733154297
0.001749277114868164
0.001966714859008789
0.001960277557373047
0.0019030570983886719
0.0018930435180664062
0.0018906593322753906
0.0018947124481201172
0.0018990039825439453
0.001911163330078125
0.0018923282623291016
0.0018932819366455078
0.001966714859008789
0.0018963813781738281
0.0019023418426513672
0.0018856525421142578
0.0018820762634277344
0.0018804073333740234
0.0018923282623291016
0.0018897056579589844
0.0018811225891113281
0.001888275146484375
0.0018849372863769531
0.0019059181213378906
0.0018932819366455078
0.0018968582153320312
0.0018868446350097656
0.0019156932830810547
0.001890420913696289
0.0018799304962158203
0.0018832683563232422
0.0018768310546875
0.0018739700317382812
0.0019245147705078125
0.0018820762634277344
0.0019228458404541016
0.0018856525421142578
0.0018770694732666016
0.001886129379272461
0.0018901824951171875
0.0019104480743408203
0.001886129379272461
0.0018811225891113281
0.0018835067749023438
0.001893758773803711
0.0018768310546875
0.0019123554229736328
0.001901388168334961
0.0019512176513671875
0.001878976821899414
0.0018825531005859375
0.0018763542175292969
0.0018808841705322266
0.0019495487213134766
0.0018906593322753906
0.0018749237060546875
0.0018796920776367188
0.0018744468688964844
0.0019104480743408203
0.0019178390502929688
0.001886606216430664
0.001874685287475586
0.0018765926361083984
0.001924276351928711
0.0018978118896484375
0.0018897056579589844
0.0018854141235351562
0.0018815994262695312
0.0018808841705322266
0.0019068717956542969
0.00189208984375
0.0019304752349853516
0.0018925666809082031
0.001880645751953125
0.0019235610961914062
0.001882791519165039
0.0018851757049560547
0.0018796920776367188
0.0018873214721679688
0.0019321441650390625
0.001917123794555664
0.001895904541015625
0.00189208984375
0.0021033287048339844
0.0019404888153076172
0.0018992424011230469
0.0018949508666992188
0.0019249916076660156
0.001909494400024414
0.0019006729125976562
0.0019066333770751953
0.0018990039825439453
0.0019099712371826172
0.0019383430480957031
0.0019221305847167969
0.001918792724609375
0.0018913745880126953
0.0018837451934814453
0.0018811225891113281
0.001901388168334961
0.0019001960754394531
0.0018897056579589844
0.0018923282623291016
0.0018963813781738281
0.0018870830535888672
0.0019106864929199219
0.001889944076538086
0.0018839836120605469
0.0018930435180664062
0.0019600391387939453
0.0019276142120361328
0.001889944076538086
0.0018846988677978516
0.0018832683563232422
0.0018832683563232422
0.0019130706787109375
0.0019073486328125
0.001924753189086914
0.0019140243530273438
0.0018978118896484375
0.0018935203552246094
0.0018956661224365234
0.0018887519836425781
0.0019335746765136719
0.0019037723541259766
0.001890420913696289
0.0019404888153076172
0.001890420913696289
0.0019118785858154297
0.001882791519165039
0.0018813610076904297
0.0019195079803466797
0.00212860107421875
0.0019600391387939453
0.001918792724609375
0.0019087791442871094
0.0018944740295410156
0.0019719600677490234
0.0019295215606689453
0.0019152164459228516
0.001924276351928711
0.0018923282623291016
0.0019032955169677734
0.0018925666809082031
0.0018885135650634766
0.0018877983093261719
0.0018846988677978516
0.001893758773803711
0.001893758773803711
0.0018830299377441406
0.0018930435180664062
0.001951456069946289
0.0019254684448242188
0.0019292831420898438
0.0019283294677734375
0.001932382583618164
0.001890420913696289
0.001924276351928711
0.0018928050994873047
0.0018887519836425781
0.0019085407257080078
0.0019116401672363281
0.0019073486328125
0.0019249916076660156
0.0018877983093261719
0.0018870830535888672
0.0018851757049560547
0.0019237995147705078
0.0019123554229736328
0.0019032955169677734
0.0018968582153320312
0.0020482540130615234
0.0019986629486083984
0.0019316673278808594
0.0019407272338867188
0.0019135475158691406
0.0018951892852783203
0.0018875598907470703
0.0018978118896484375
0.0018949508666992188
0.001889944076538086
0.0018858909606933594
0.0018901824951171875
0.001943826675415039
0.0019414424896240234
0.0019066333770751953
0.0019009113311767578
0.0018932819366455078
0.0019314289093017578
0.0018901824951171875
0.0018825531005859375
0.0018839836120605469
0.0018925666809082031
0.0018799304962158203
0.0018873214721679688
0.0019745826721191406
0.0018954277038574219
0.0019221305847167969
0.0018939971923828125
0.0019104480743408203
0.001895904541015625
0.0018901824951171875
0.0019261837005615234
0.0019083023071289062
0.0019016265869140625
0.0018968582153320312
0.0018901824951171875
0.0019218921661376953
0.0018961429595947266
0.0018985271453857422
0.0019066333770751953
0.0019116401672363281
0.0019001960754394531
0.001931905746459961
0.0020074844360351562
0.0017638206481933594
0.0017499923706054688
0.0017490386962890625
0.001775979995727539
0.0017452239990234375
0.0015213489532470703
0.0014674663543701172
0.001462697982788086
0.0014660358428955078
0.0014684200286865234
0.0015642642974853516
0.0015406608581542969
0.001554250717163086
0.0015425682067871094
0.0015437602996826172
0.0016207695007324219
0.001495361328125
0.0014722347259521484
0.0014662742614746094
0.0014672279357910156
0.0014693737030029297
0.0014607906341552734
0.001466512680053711
0.001461029052734375
0.0014619827270507812
0.001529693603515625
0.0015583038330078125
0.0015704631805419922
0.0017426013946533203
0.0017826557159423828
0.0016620159149169922
0.0015375614166259766
0.0015058517456054688
0.0014941692352294922
0.0014758110046386719
0.0014717578887939453
0.0016832351684570312
0.0016400814056396484
0.0017056465148925781
0.0016942024230957031
0.0017080307006835938
0.001506805419921875
0.001506805419921875
0.0014719963073730469
0.0014731884002685547
0.0014812946319580078
0.001567840576171875
0.0015964508056640625
0.0015652179718017578
0.001542806625366211
0.0015888214111328125
0.0015807151794433594
0.0018239021301269531
0.0016033649444580078
0.0016024112701416016
0.0015637874603271484
0.0016558170318603516
0.0015039443969726562
0.0015299320220947266
0.0014965534210205078
0.0014834403991699219
0.0015561580657958984
0.001631021499633789
0.001565694808959961
0.0015728473663330078
0.001554727554321289
0.0016236305236816406
0.0015153884887695312
0.0015060901641845703
0.0014801025390625
0.0014798641204833984
0.00147247314453125
0.0015654563903808594
0.0015716552734375
0.001565694808959961
0.0016145706176757812
0.0015735626220703125
0.0015063285827636719
0.0014815330505371094
0.0015075206756591797
0.0014777183532714844
0.0014710426330566406
0.001659393310546875
0.0016396045684814453
0.0016567707061767578
0.0016393661499023438
0.0016376972198486328
0.0016789436340332031
0.0015354156494140625
0.0014793872833251953
0.0015158653259277344
0.0014979839324951172
0.0015158653259277344
0.001493692398071289
0.0014801025390625
0.0014922618865966797
0.001519918441772461
0.0015740394592285156
0.0015587806701660156
0.0015418529510498047
0.0015485286712646484
0.0015416145324707031
0.0015444755554199219
0.0014884471893310547
0.0014781951904296875
0.0014717578887939453
0.0014710426330566406
0.0014750957489013672
0.0016870498657226562
0.0016503334045410156
0.0016417503356933594
0.001634836196899414
0.0016331672668457031
0.0014925003051757812
0.0014750957489013672
0.0014662742614746094
0.001474618911743164
0.0014622211456298828
0.0016477108001708984
0.0015685558319091797
0.00159454345703125
0.0015456676483154297
0.0015490055084228516
0.001552581787109375
0.0015480518341064453
0.0015447139739990234
0.0015711784362792969
0.0015456676483154297
0.0016896724700927734
0.0017621517181396484
0.0017881393432617188
0.0017774105072021484
0.001752614974975586
0.0019326210021972656
0.0019085407257080078
0.0023050308227539062
0.0019314289093017578
0.0019118785858154297
0.001909494400024414
0.0018973350524902344
0.0018992424011230469
0.001943349838256836
0.0019118785858154297
0.0019736289978027344
0.0019197463989257812
0.00193023681640625
0.0019097328186035156
0.0019023418426513672
0.0019948482513427734
0.0019121170043945312
0.002919912338256836
0.0022361278533935547
0.0020110607147216797
0.001973867416381836
0.001850128173828125
0.0017669200897216797
0.0017857551574707031
0.001766204833984375
0.001764535903930664
0.001943826675415039
0.001979827880859375
0.0019290447235107422
0.0019745826721191406
0.0020360946655273438
0.0020437240600585938
0.0019555091857910156
0.001950979232788086
0.001993894577026367
0.0019445419311523438
0.002005338668823242
0.001936197280883789
0.0019235610961914062
0.0019075870513916016
0.0018956661224365234
0.0019109249114990234
0.0019078254699707031
0.001909017562866211
0.0019371509552001953
0.0019466876983642578
0.0019512176513671875
0.0018994808197021484
0.0019059181213378906
0.0019032955169677734
0.0019464492797851562
0.0019960403442382812
0.0019488334655761719
0.0019125938415527344
0.001951456069946289
0.001924753189086914
0.0019125938415527344
0.0019161701202392578
0.0019135475158691406
0.0019257068634033203
0.001905679702758789
0.0019047260284423828
0.0019550323486328125
0.0019350051879882812
0.0019123554229736328
0.0019469261169433594
0.00191497802734375
0.001960277557373047
0.0019078254699707031
0.0019097328186035156
0.0019240379333496094
0.0019211769104003906
0.001953601837158203
0.002100229263305664
0.0019474029541015625
0.0020177364349365234
0.0019788742065429688
0.0019571781158447266
0.0019712448120117188
0.0019142627716064453
0.0019044876098632812
0.0019071102142333984
0.0019049644470214844
0.0019147396087646484
0.0019068717956542969
0.0019047260284423828
0.0019016265869140625
0.0019192695617675781
0.001940011978149414
0.0019106864929199219
0.0019333362579345703
0.0019059181213378906
0.0019342899322509766
0.001909017562866211
0.0019037723541259766
0.0018954277038574219
0.001901388168334961
0.0019004344940185547
0.0019419193267822266
0.0019099712371826172
0.001913309097290039
0.001924753189086914
0.0018961429595947266
0.0018987655639648438
0.001905202865600586
0.0019505023956298828
0.0019071102142333984
0.001901865005493164
0.0019054412841796875
0.0019447803497314453
0.0019152164459228516
0.0019259452819824219
0.0019268989562988281
0.0019345283508300781
0.0019085407257080078
0.0019235610961914062
0.002009153366088867
0.001912832260131836
0.0019049644470214844
0.00191497802734375
0.0019063949584960938
0.0019011497497558594
0.0019299983978271484
0.0019152164459228516
0.0019545555114746094
0.0019235610961914062
0.0019176006317138672
0.0019180774688720703
0.001901388168334961
0.0018973350524902344
0.0019061565399169922
0.0019080638885498047
0.0018968582153320312
0.00189971923828125
0.0019123554229736328
0.0019729137420654297
0.0019404888153076172
0.0019061565399169922
0.0019009113311767578
0.0021970272064208984
0.001982450485229492
0.001974344253540039
0.001971006393432617
0.0019457340240478516
0.0019464492797851562
0.0019385814666748047
0.0019426345825195312
0.001947641372680664
0.0019190311431884766
0.001905679702758789
0.0019195079803466797
0.0019083023071289062
0.0019116401672363281
0.0019092559814453125
0.001905202865600586
0.0019257068634033203
0.0019145011901855469
0.0021049976348876953
0.0019412040710449219
0.001954793930053711
0.0019288063049316406
0.001911163330078125
0.0019297599792480469
0.001990079879760742
0.0019237995147705078
0.001968860626220703
0.0019299983978271484
0.0019376277923583984
0.0019273757934570312
0.0019140243530273438
0.001986980438232422
0.001909494400024414
0.0019130706787109375
0.001911163330078125
0.001909017562866211
0.0019068717956542969
0.001931905746459961
0.0019178390502929688
0.0019097328186035156
0.001909017562866211
0.0019185543060302734
0.0019414424896240234
0.0019505023956298828
0.0019161701202392578
0.0019073486328125
0.0019009113311767578
0.0019152164459228516
0.0019063949584960938
0.0019073486328125
0.0019078254699707031
0.0019059181213378906
0.0019621849060058594
0.0019288063049316406
0.0019354820251464844
0.0018987655639648438
0.0019452571868896484
0.0019521713256835938
0.0019123554229736328
0.0019080638885498047
0.0019059181213378906
0.0019421577453613281
0.0019178390502929688
0.0019173622131347656
0.0019221305847167969
0.001924753189086914
0.0019373893737792969
0.001909494400024414
0.0021102428436279297
0.0019669532775878906
0.001947641372680664
0.00196075439453125
0.0019257068634033203
0.0019488334655761719
0.001926422119140625
0.0019252300262451172
0.0019183158874511719
0.0019419193267822266
0.0019261837005615234
0.001911163330078125
0.001940011978149414
0.0019192695617675781
0.0019121170043945312
0.0019521713256835938
0.001917123794555664
0.0019061565399169922
0.0019664764404296875
0.0019605159759521484
0.0019478797912597656
0.0019478797912597656
0.0019109249114990234
0.001920938491821289
0.0019168853759765625
0.0019114017486572266
0.0019259452819824219
0.0019180774688720703
0.001997232437133789
0.0019192695617675781
0.0019228458404541016
0.001961231231689453
0.0019412040710449219
0.0019154548645019531
0.0019114017486572266
0.0019104480743408203
0.0019338130950927734
0.0019288063049316406
0.0019202232360839844
0.0019164085388183594
0.0019481182098388672
0.0019202232360839844
0.001958131790161133
0.0019221305847167969
0.0019195079803466797
0.001917123794555664
0.0019123554229736328
0.0019524097442626953
0.001955747604370117
0.0019216537475585938
0.0019099712371826172
0.0019125938415527344
0.001953125
0.0019485950469970703
0.001913309097290039
0.0019562244415283203
0.0019202232360839844
0.0019097328186035156
0.0019211769104003906
0.0019190311431884766
0.0020880699157714844
0.002005338668823242
0.0020742416381835938
0.0019714832305908203
0.0019936561584472656
0.0019845962524414062
0.0019621849060058594
0.0019218921661376953
0.0019304752349853516
0.0019342899322509766
0.0019214153289794922
0.002334117889404297
0.0019371509552001953
0.0019767284393310547
0.0019233226776123047
0.0019235610961914062
0.0019390583038330078
0.0019228458404541016
0.002030611038208008
0.001931905746459961
0.0019986629486083984
0.0019271373748779297
0.0019571781158447266
0.0019986629486083984
0.001962900161743164
0.00194549560546875
0.0019605159759521484
0.0019614696502685547
0.00196075439453125
0.0019571781158447266
0.001920938491821289
0.0019221305847167969
0.0019195079803466797
0.0019145011901855469
0.001966714859008789
0.0019588470458984375
0.0019390583038330078
0.0019192695617675781
0.001956939697265625
0.0019762516021728516
0.0019450187683105469
0.0020051002502441406
0.0019307136535644531
0.0019211769104003906
0.001955270767211914
0.0019462108612060547
0.0019292831420898438
0.0019161701202392578
0.0019731521606445312
0.0019407272338867188
0.0019423961639404297
0.0019292831420898438
0.0019404888153076172
0.0019116401672363281
0.001936197280883789
0.001916646957397461
0.002085447311401367
0.0019466876983642578
0.0019404888153076172
0.002016782760620117
0.0020110607147216797
0.001951456069946289
0.001955270767211914
0.0019350051879882812
0.002000570297241211
0.0021665096282958984
0.0019636154174804688
0.0019419193267822266
0.0019402503967285156
0.0019288063049316406
0.001932382583618164
0.0019190311431884766
0.0019216537475585938
0.0019273757934570312
0.001924753189086914
0.001966714859008789
0.0019321441650390625
0.0019254684448242188
0.001971006393432617
0.0019268989562988281
0.0019412040710449219
0.0019199848175048828
0.0019218921661376953
0.001909494400024414
0.0019161701202392578
0.001939535140991211
0.0019252300262451172
0.0019512176513671875
0.0019195079803466797
0.001917123794555664
0.001981973648071289
0.0019614696502685547
0.0019364356994628906
0.0019245147705078125
0.0019233226776123047
0.001985788345336914
0.002063274383544922
0.001966238021850586
0.0019626617431640625
0.0019249916076660156
0.0019652843475341797
0.001943826675415039
0.0019283294677734375
0.0019202232360839844
0.0019609928131103516
0.002017974853515625
0.001971721649169922
0.0019447803497314453
0.002048015594482422
0.0019750595092773438
0.0019545555114746094
0.001940011978149414
0.001931905746459961
0.0019373893737792969
0.001928091049194336
0.001973390579223633
0.0019483566284179688
0.0019338130950927734
0.0019278526306152344
0.002695798873901367
0.002342700958251953
0.0019066333770751953
0.0018262863159179688
0.0017974376678466797
0.0018112659454345703
0.001795053482055664
0.001971721649169922
0.0019502639770507812
0.0019407272338867188
0.0019352436065673828
0.0019366741180419922
0.001981973648071289
0.0019714832305908203
0.0019783973693847656
0.0019314289093017578
0.0019218921661376953
0.0019354820251464844
0.0019330978393554688
0.0020034313201904297
0.0019376277923583984
0.0020020008087158203
0.001983642578125
0.001964092254638672
0.0019392967224121094
0.0019643306732177734
0.001981973648071289
0.0019855499267578125
0.0019326210021972656
0.0019462108612060547
0.0019342899322509766
0.0019631385803222656
0.0019288063049316406
0.0019330978393554688
0.001928567886352539
0.0019643306732177734
0.0019521713256835938
0.0019526481628417969
0.0019326210021972656
0.0019328594207763672
0.0019800662994384766
0.0020074844360351562
0.0019385814666748047
0.0019383430480957031
0.0019304752349853516
0.0019314289093017578
0.001995086669921875
0.00194549560546875
0.002004861831665039
0.0020978450775146484
0.0019507408142089844
0.0019545555114746094
0.0019364356994628906
0.001979351043701172
0.001935720443725586
0.001926422119140625
0.0019333362579345703
0.0019221305847167969
0.0019698143005371094
0.0019392967224121094
0.0019423961639404297
0.0019278526306152344
0.0019211769104003906
0.0019168853759765625
0.0019402503967285156
0.0019419193267822266
0.0019299983978271484
0.001926422119140625
0.001961946487426758
0.0019681453704833984
0.0019600391387939453
0.0019998550415039062
0.001928091049194336
0.0019266605377197266
0.001964569091796875
0.0019257068634033203
0.0019445419311523438
0.0019338130950927734
0.0019290447235107422
0.0021255016326904297
0.0019805431365966797
0.001969575881958008
0.0019502639770507812
0.0019299983978271484
0.0019369125366210938
0.0019419193267822266
0.00193023681640625
0.0019345283508300781
0.0019338130950927734
0.0019626617431640625
0.001953601837158203
0.0019321441650390625
0.001966238021850586
0.001973390579223633
0.0019757747650146484
0.0019447803497314453
0.0020132064819335938
0.0019373893737792969
0.0019347667694091797
0.0019288063049316406
0.001943349838256836
0.001928567886352539
0.001932382583618164
0.0019497871398925781
0.0019447803497314453
0.0019526481628417969
0.0019268989562988281
0.001928567886352539
0.0019252300262451172
0.0019369125366210938
0.0020208358764648438
0.0019385814666748047
0.0019388198852539062
0.0019252300262451172
0.00193023681640625
0.001992940902709961
0.001953125
0.002012014389038086
0.0019466876983642578
0.001962423324584961
0.0019359588623046875
0.0018553733825683594
0.0017948150634765625
0.0017986297607421875
0.001791238784790039
0.0017917156219482422
0.0015316009521484375
0.001547098159790039
0.0015261173248291016
0.001501321792602539
0.0014984607696533203
0.0015094280242919922
0.0015027523040771484
0.0015015602111816406
0.0014994144439697266
0.0015120506286621094
0.0016057491302490234
0.001588582992553711
0.001967906951904297
0.0018684864044189453
0.0017192363739013672
0.0016982555389404297
0.0015456676483154297
0.0015246868133544922
0.001528024673461914
0.0015416145324707031
0.0016384124755859375
0.001615285873413086
0.0015935897827148438
0.001592397689819336
0.0016131401062011719
0.0016202926635742188
0.00152587890625
0.0015037059783935547
0.0015001296997070312
0.00150299072265625
0.0014967918395996094
0.001691579818725586
0.0016787052154541016
0.0016782283782958984
0.0016760826110839844
0.0017037391662597656
0.0017268657684326172
0.0015480518341064453
0.0015010833740234375
0.0015032291412353516
0.0015003681182861328
0.0015044212341308594
0.001497030258178711
0.001543283462524414
0.001535654067993164
0.0015399456024169922
0.0015914440155029297
0.0016317367553710938
0.0016033649444580078
0.0015778541564941406
0.0015926361083984375
0.0016546249389648438
0.001516103744506836
0.0015063285827636719
0.0014986991882324219
0.001504659652709961
0.0015020370483398438
0.0015995502471923828
0.0015797615051269531
0.0016207695007324219
0.0016169548034667969
0.0017347335815429688
0.0015544891357421875
0.0015234947204589844
0.0015263557434082031
0.0015115737915039062
0.0015003681182861328
0.0017101764678955078
0.0016777515411376953
0.0017099380493164062
0.0017695426940917969
0.001741170883178711
0.0014672279357910156
0.0014531612396240234
0.0015091896057128906
0.0014526844024658203
0.0014410018920898438
0.0016045570373535156
0.0015840530395507812
0.0015802383422851562
0.0015842914581298828
0.0015797615051269531
0.0016002655029296875
0.001611948013305664
0.0015764236450195312
0.0015721321105957031
0.0015759468078613281
0.001661062240600586
0.0015156269073486328
0.0015034675598144531
0.0015001296997070312
0.0015058517456054688
0.0015723705291748047
0.001617431640625
0.001988649368286133
0.001844644546508789
0.0016384124755859375
0.0017528533935546875
0.001508474349975586
0.001592397689819336
0.0015723705291748047
0.0014951229095458984
0.0015223026275634766
0.0017399787902832031
0.0017852783203125
0.0017261505126953125
0.0017328262329101562
0.0020143985748291016
0.0017359256744384766
0.0015265941619873047
0.0015060901641845703
0.0015096664428710938
0.0015041828155517578
0.0015289783477783203
0.0015213489532470703
0.001516580581665039
0.0015387535095214844
0.001528024673461914
0.0015745162963867188
0.0016002655029296875
0.0016281604766845703
0.001581430435180664
0.0015861988067626953
0.0016121864318847656
0.0018265247344970703
0.0018982887268066406
0.001934051513671875
0.0018870830535888672
0.0018644332885742188
0.0020034313201904297
0.0019676685333251953
0.0019459724426269531
0.0019419193267822266
0.0019392967224121094
0.0019979476928710938
0.0019927024841308594
0.0019812583923339844
0.0019576549530029297
0.001963376998901367
0.0019421577453613281
0.0019845962524414062
0.0019359588623046875
0.0019364356994628906
0.0019676685333251953
0.001954793930053711
0.0019865036010742188
0.0019474029541015625
0.0022144317626953125
0.002221822738647461
0.0022394657135009766
0.0023441314697265625
0.002022981643676758
0.0019805431365966797
0.0019555091857910156
0.001960277557373047
0.0019481182098388672
0.0019426345825195312
0.0019445419311523438
0.002004861831665039
0.0020678043365478516
0.0019681453704833984
0.00197601318359375
0.0019605159759521484
0.0019714832305908203
0.0020432472229003906
0.0020089149475097656
0.001958608627319336
0.0019636154174804688
0.001950979232788086
0.0019443035125732422
0.0020008087158203125
0.001989126205444336
0.001978158950805664
0.0019676685333251953
0.0019807815551757812
0.0019707679748535156
0.0019512176513671875
0.0019452571868896484
0.0019450187683105469
0.0019359588623046875
0.0019502639770507812
0.0019381046295166016
0.0019381046295166016
0.0019378662109375
0.0019659996032714844
0.002053976058959961
0.002022266387939453
0.0019588470458984375
0.001978158950805664
0.0019409656524658203
0.0019376277923583984
0.0019443035125732422
0.0019402503967285156
0.0019359588623046875
0.0019834041595458984
0.0020368099212646484
0.0020182132720947266
0.001983642578125
0.0019440650939941406
0.001967191696166992
0.0019664764404296875
0.0019621849060058594
0.0019452571868896484
0.001978635787963867
0.0019488334655761719
0.0019392967224121094
0.0019571781158447266
0.001959562301635742
0.0019545555114746094
0.0019783973693847656
0.001943349838256836
0.0019855499267578125
0.001949310302734375
0.001943349838256836
0.0019593238830566406
0.001951456069946289
0.0019533634185791016
0.0019538402557373047
0.0019490718841552734
0.0019545555114746094
0.00201416015625
0.0019478797912597656
0.001956462860107422
0.0019431114196777344
0.001986265182495117
0.0019757747650146484
0.0019488334655761719
0.0020182132720947266
0.0019478797912597656
0.0019540786743164062
0.001961946487426758
0.002015829086303711
0.0020215511322021484
0.0019690990447998047
0.001962900161743164
0.001955747604370117
0.0019538402557373047
0.0019490718841552734
0.0019483566284179688
0.0019462108612060547
0.0019419193267822266
0.001939535140991211
0.0019376277923583984
0.002048492431640625
0.0019490718841552734
0.0030210018157958984
0.002249002456665039
0.002033233642578125
0.0021126270294189453
0.0018296241760253906
0.0018982887268066406
0.0018291473388671875
0.0018279552459716797
0.0018992424011230469
0.002043485641479492
0.00199127197265625
0.0019598007202148438
0.0019495487213134766
0.001962423324584961
0.0019555091857910156
0.0019502639770507812
0.0019474029541015625
0.0019481182098388672
0.001950979232788086
0.001985788345336914
0.0019659996032714844
0.0019884109497070312
0.0019409656524658203
0.0020318031311035156
0.0019769668579101562
0.0020241737365722656
0.001964092254638672
0.001955270767211914
0.0019469261169433594
0.001959085464477539
0.0019736289978027344
0.0020101070404052734
0.0019805431365966797
0.0019960403442382812
0.0020177364349365234
0.0019600391387939453
0.0019497871398925781
0.001954317092895508
0.0019445419311523438
0.002000570297241211
0.001968860626220703
0.0019495487213134766
0.0019459724426269531
0.0019469261169433594
0.001972675323486328
0.0019588470458984375
0.0019490718841552734
0.0019481182098388672
0.001943349838256836
0.0019466876983642578
0.0020313262939453125
0.001956462860107422
0.0019414424896240234
0.0019443035125732422
0.001982450485229492
0.001957416534423828
0.0020165443420410156
0.0019540786743164062
0.0019567012786865234
0.0019850730895996094
0.001958131790161133
0.0019526481628417969
0.0019485950469970703
0.0019600391387939453
0.0019519329071044922
0.001949310302734375
0.002133607864379883
0.0020003318786621094
0.001962900161743164
0.0020265579223632812
0.001962900161743164
0.0019707679748535156
0.0019524097442626953
0.0019617080688476562
0.001955747604370117
0.002001523971557617
0.0020322799682617188
0.0019989013671875
0.002011537551879883
0.001970529556274414
0.001947164535522461
0.0019428730010986328
0.0019614696502685547
0.0019845962524414062
0.0019540786743164062
0.0019519329071044922
0.0019898414611816406
0.001971721649169922
0.0019702911376953125
0.0019681453704833984
0.002069711685180664
0.0019638538360595703
0.001960277557373047
0.00194549560546875
0.001940011978149414
0.0019412040710449219
0.0019464492797851562
0.0019516944885253906
0.0019423961639404297
0.0020093917846679688
0.002009153366088867
0.0019817352294921875
0.0020601749420166016
0.0019614696502685547
0.0019443035125732422
0.0019500255584716797
0.001967191696166992
0.0019681453704833984
0.001955747604370117
0.001954793930053711
0.0019636154174804688
0.001979351043701172
0.001956462860107422
0.0019991397857666016
0.001943349838256836
0.0019521713256835938
0.001950979232788086
0.0019490718841552734
0.001954793930053711
0.001964092254638672
0.001949310302734375
0.0019540786743164062
0.001983165740966797
0.0019826889038085938
0.0019664764404296875
0.001993417739868164
0.0019614696502685547
0.0019562244415283203
0.001991748809814453
0.0019974708557128906
0.0019643306732177734
0.0019631385803222656
0.0019490718841552734
0.0019605159759521484
0.0019979476928710938
0.0019600391387939453
0.001996278762817383
0.0019502639770507812
0.002019643783569336
0.0019643306732177734
0.0019507408142089844
0.0019555091857910156
0.0019533634185791016
0.0019521713256835938
0.0019609928131103516
0.0019719600677490234
0.0019550323486328125
0.001961946487426758
0.0019512176513671875
0.0019617080688476562
0.0019855499267578125
0.0019598007202148438
0.0019481182098388672
0.001955747604370117
0.0021409988403320312
0.0019915103912353516
0.002244234085083008
0.0022039413452148438
0.0020771026611328125
0.002055644989013672
0.002013683319091797
0.0019731521606445312
0.0019855499267578125
0.0019712448120117188
0.0020020008087158203
0.0019626617431640625
0.0019731521606445312
0.001969575881958008
0.0020236968994140625
0.002022266387939453
0.00200653076171875
0.001957416534423828
0.001953601837158203
0.0019550323486328125
0.0019524097442626953
0.0020127296447753906
0.0019652843475341797
0.0019571781158447266
0.001955270767211914
0.001955270767211914
0.0019822120666503906
0.0019731521606445312
0.0019714832305908203
0.001959085464477539
0.0019593238830566406
0.001970052719116211
0.0019614696502685547
0.001953125
0.0019505023956298828
0.0019998550415039062
0.001990795135498047
0.0019969940185546875
0.0019659996032714844
0.001995563507080078
0.001962900161743164
0.001977205276489258
0.0019598007202148438
0.001962900161743164
0.0019550323486328125
0.001959562301635742
0.0020265579223632812
0.0019686222076416016
0.001959562301635742
0.001979351043701172
0.0019719600677490234
0.0020494461059570312
0.001987934112548828
0.0019652843475341797
0.0019593238830566406
0.001965761184692383
0.00196075439453125
0.0019683837890625
0.001958608627319336
0.001962423324584961
0.001986980438232422
0.0019698143005371094
0.001986265182495117
0.0019567012786865234
0.0019500255584716797
0.0020148754119873047
0.001973867416381836
0.0019724369049072266
0.0019636154174804688
0.0019655227661132812
0.00196075439453125
0.001989126205444336
0.0020487308502197266
0.0019898414611816406
0.0019969940185546875
0.001961946487426758
0.001957416534423828
0.0019567012786865234
0.0019621849060058594
0.001959085464477539
0.001953601837158203
0.0019681453704833984
0.0019593238830566406
0.0019707679748535156
0.0019876956939697266
0.0019936561584472656
0.001953125
0.0019588470458984375
0.0019855499267578125
0.001964569091796875
0.0019605159759521484
0.0019578933715820312
0.001957416534423828
0.0019698143005371094
0.001953125
0.0020437240600585938
0.002031564712524414
0.0021255016326904297
0.002200603485107422
0.002008199691772461
0.0020203590393066406
0.001981496810913086
0.002026796340942383
0.001983165740966797
0.0019903182983398438
0.001973390579223633
0.002011537551879883
0.0023870468139648438
0.002025604248046875
0.002003192901611328
0.0019996166229248047
0.001970529556274414
0.0019843578338623047
0.001969575881958008
0.0019719600677490234
0.0020203590393066406
0.0019779205322265625
0.002404928207397461
0.0020284652709960938
0.0020394325256347656
0.0019969940185546875
0.0024085044860839844
0.0019915103912353516
0.001986980438232422
0.0020101070404052734
0.0020248889923095703
0.0019686222076416016
0.001970052719116211
0.0019638538360595703
0.0019936561584472656
0.002025604248046875
0.002045154571533203
0.001989603042602539
0.0019698143005371094
0.0019686222076416016
0.001974344253540039
0.002010822296142578
0.0020008087158203125
0.0019845962524414062
0.0019707679748535156
0.002035856246948242
0.002003192901611328
0.0019965171813964844
0.001989603042602539
0.0019686222076416016
0.001958608627319336
0.002010345458984375
0.0019762516021728516
0.001962423324584961
0.0019614696502685547
0.0019562244415283203
0.001973390579223633
0.0020024776458740234
0.001987934112548828
0.0019919872283935547
0.0020172595977783203
0.002012491226196289
0.0019829273223876953
0.002010345458984375
0.0019822120666503906
0.0020225048065185547
0.0020246505737304688
0.002113819122314453
0.0020110607147216797
0.0020055770874023438
0.00201416015625
0.002029895782470703
0.0019741058349609375
0.001967906951904297
0.001965045928955078
0.0019562244415283203
0.0020325183868408203
0.0019783973693847656
0.001973867416381836
0.0019643306732177734
0.002031564712524414
0.001986265182495117
0.0019986629486083984
0.0019996166229248047
0.002008676528930664
0.001966238021850586
0.0019702911376953125
0.0020105838775634766
0.0020058155059814453
0.0019609928131103516
0.0020198822021484375
0.0019812583923339844
0.001964092254638672
0.0020236968994140625
0.0019712448120117188
0.001966238021850586
0.001967191696166992
0.00200653076171875
0.0019752979278564453
0.0019538402557373047
0.0019617080688476562
0.0019941329956054688
0.0019648075103759766
0.0020034313201904297
0.001971721649169922
0.001992464065551758
0.0019516944885253906
0.0019922256469726562
0.0019719600677490234
0.002024412155151367
0.002005338668823242
0.001985311508178711
0.0019745826721191406
0.002042055130004883
0.0019919872283935547
0.0019745826721191406
0.0020084381103515625
0.001960277557373047
0.0019676685333251953
0.0019714832305908203
0.002033233642578125
0.001981496810913086
0.0019729137420654297
0.003288745880126953
0.002478361129760742
0.0021784305572509766
0.002122163772583008
0.0020513534545898438
0.0020377635955810547
0.001999378204345703
0.0019969940185546875
0.0019800662994384766
0.001967906951904297
0.001972198486328125
0.001986265182495117
0.001974821090698242
0.0019707679748535156
0.002005338668823242
0.0019974708557128906
0.0021429061889648438
0.0018477439880371094
0.0018322467803955078
0.0018222332000732422
0.0018248558044433594
0.0018184185028076172
0.0016298294067382812
0.0015997886657714844
0.0016069412231445312
0.0016014575958251953
0.0016283988952636719
0.0016050338745117188
0.001628875732421875
0.0015366077423095703
0.0015370845794677734
0.001528024673461914
0.0017251968383789062
0.0017027854919433594
0.0017294883728027344
0.0017085075378417969
0.0017027854919433594
0.0017325878143310547
0.0015573501586914062
0.001550436019897461
0.001528024673461914
0.001531362533569336
0.001554250717163086
0.0015337467193603516
0.0015292167663574219
0.0015239715576171875
0.0015285015106201172
0.0016140937805175781
0.0016219615936279297
0.0016062259674072266
0.0016560554504394531
0.0016279220581054688
0.0015969276428222656
0.0015816688537597656
0.0015416145324707031
0.0015251636505126953
0.0015349388122558594
0.0015659332275390625
0.0016374588012695312
0.0016069412231445312
0.0016112327575683594
0.0016260147094726562
0.0016367435455322266
0.0016798973083496094
0.001539468765258789
0.0015287399291992188
0.001522064208984375
0.0015306472778320312
0.001556396484375
0.001523733139038086
0.0015230178833007812
0.0015227794647216797
0.00152587890625
0.0016269683837890625
0.0016665458679199219
0.0016105175018310547
0.0016036033630371094
0.0015988349914550781
0.002197265625
0.0015935897827148438
0.0015511512756347656
0.0015361309051513672
0.0015382766723632812
0.0016078948974609375
0.0016818046569824219
0.0016527175903320312
0.0016183853149414062
0.001728057861328125
0.0016214847564697266
0.001550912857055664
0.0015492439270019531
0.0015518665313720703
0.0015490055084228516
0.0015330314636230469
0.0017254352569580078
0.0017430782318115234
0.001720428466796875
0.0017673969268798828
0.0017099380493164062
0.0017325878143310547
0.0015404224395751953
0.0015363693237304688
0.0015518665313720703
0.0015680789947509766
0.0015730857849121094
0.0015294551849365234
0.0015282630920410156
0.0015566349029541016
0.0015652179718017578
0.0015995502471923828
0.00162506103515625
0.001611948013305664
0.0016248226165771484
0.0016131401062011719
0.0016875267028808594
0.0015442371368408203
0.0015289783477783203
0.0016467571258544922
0.0015468597412109375
0.0015456676483154297
0.0016705989837646484
0.0016138553619384766
0.0016105175018310547
0.0018930435180664062
0.0016798973083496094
0.0016696453094482422
0.0016453266143798828
0.0016379356384277344
0.0016570091247558594
0.0016245841979980469
0.0016858577728271484
0.0016679763793945312
0.0016164779663085938
0.0016167163848876953
0.0016596317291259766
0.0017099380493164062
0.0015468597412109375
0.001531362533569336
0.0015385150909423828
0.0015337467193603516
0.0017991065979003906
0.0017299652099609375
0.0016541481018066406
0.0016512870788574219
0.0016205310821533203
0.0016105175018310547
0.0017347335815429688
0.001880645751953125
0.0017161369323730469
0.0017096996307373047
0.0017027854919433594
0.002004861831665039
0.001996278762817383
0.001992940902709961
0.002032041549682617
0.0019783973693847656
0.001993894577026367
0.001981496810913086
0.0019791126251220703
0.0019674301147460938
0.0019745826721191406
0.001988649368286133
0.0019741058349609375
0.0019834041595458984
0.001973867416381836
0.0020563602447509766
0.001996278762817383
0.0019795894622802734
0.001967191696166992
0.0019783973693847656
0.0019752979278564453
0.0019888877868652344
0.001974344253540039
0.001974344253540039
0.0019767284393310547
0.0019843578338623047
0.0020127296447753906
0.002008199691772461
0.0020656585693359375
0.002004384994506836
0.001983642578125
0.0020287036895751953
0.0020020008087158203
0.0019719600677490234
0.0019881725311279297
0.00199127197265625
0.001982450485229492
0.0019817352294921875
0.0020117759704589844
0.0019752979278564453
0.0020089149475097656
0.0019989013671875
0.002036571502685547
0.001989603042602539
0.0021822452545166016
0.0020453929901123047
0.0019974708557128906
0.0020165443420410156
0.0020062923431396484
0.002003908157348633
0.0020160675048828125
0.0019674301147460938
0.0019805431365966797
0.0019800662994384766
0.001973390579223633
0.0019731521606445312
0.001990079879760742
0.0019943714141845703
0.002040863037109375
0.0019969940185546875
0.001990079879760742
0.002019643783569336
0.002007007598876953
0.0019752979278564453
0.0020127296447753906
0.0020225048065185547
0.0019903182983398438
0.0020279884338378906
0.001982450485229492
0.002018451690673828
0.0019941329956054688
0.002016305923461914
0.0020399093627929688
0.002019643783569336
0.0019783973693847656
0.001983165740966797
0.001964569091796875
0.0019826889038085938
0.0019867420196533203
0.0019812583923339844
0.001973867416381836
0.001975536346435547
0.001999378204345703
0.001990795135498047
0.002053499221801758
0.0019960403442382812
0.001978635787963867
0.001977682113647461
0.002033233642578125
0.0019979476928710938
0.002019643783569336
0.002007007598876953
0.0019872188568115234
0.002000570297241211
0.0020139217376708984
0.002010345458984375
0.002027750015258789
0.0019979476928710938
0.001994609832763672
0.001984834671020508
0.0019762516021728516
0.0020945072174072266
0.0022106170654296875
0.0020704269409179688
0.0020351409912109375
0.002014636993408203
0.002015352249145508
0.0020339488983154297
0.002000093460083008
0.002003192901611328
0.0019893646240234375
0.0021543502807617188
0.0020248889923095703
0.0019998550415039062
0.002006053924560547
0.002027750015258789
0.0019969940185546875
0.002023935317993164
0.002053976058959961
0.0020377635955810547
0.0020279884338378906
0.0020041465759277344
0.0019969940185546875
0.002025127410888672
0.002031087875366211
0.002032756805419922
0.0020194053649902344
0.002022266387939453
0.0020253658294677734
0.002043485641479492
0.002015829086303711
0.0019905567169189453
0.002015829086303711
0.0019958019256591797
0.002035379409790039
0.0020372867584228516
0.002264738082885742
0.002184629440307617
0.0021219253540039062
0.0020613670349121094
0.0022487640380859375
0.0023119449615478516
0.0020856857299804688
0.002064943313598633
0.002031087875366211
0.0020210742950439453
0.0020117759704589844
0.002027273178100586
0.002043485641479492
0.0020208358764648438
0.001997232437133789
0.002009868621826172
0.0020101070404052734
0.002029895782470703
0.002067089080810547
0.0019979476928710938
0.001987457275390625
0.0019919872283935547
0.001985788345336914
0.001989603042602539
0.002062082290649414
0.0020301342010498047
0.0020329952239990234
0.002031087875366211
0.0020227432250976562
0.0020759105682373047
0.002012014389038086
0.0019998550415039062
0.001995563507080078
0.0019872188568115234
0.0020034313201904297
0.0019960403442382812
0.0019965171813964844
0.0019910335540771484
0.0020017623901367188
0.002010345458984375
0.0020208358764648438
0.0019910335540771484
0.0020341873168945312
0.0019991397857666016
0.002025604248046875
0.0019960403442382812
0.001992940902709961
0.001981973648071289
0.002003908157348633
0.0020139217376708984
0.002008676528930664
0.002027750015258789
0.0020265579223632812
0.001994609832763672
0.0020210742950439453
0.0020575523376464844
0.0019989013671875
0.0019865036010742188
0.001991748809814453
0.0019927024841308594
0.001996755599975586
0.0020232200622558594
0.002009153366088867
0.0020296573638916016
0.0019884109497070312
0.001993417739868164
0.001990795135498047
0.0019893646240234375
0.001991748809814453
0.002050638198852539
0.0020563602447509766
0.002034902572631836
0.002074003219604492
0.0020110607147216797
0.0020258426666259766
0.0019860267639160156
0.002004384994506836
0.001990795135498047
0.0019876956939697266
0.002017974853515625
0.002004384994506836
0.002003908157348633
0.0019893646240234375
0.002542734146118164
0.003186464309692383
0.002282857894897461
0.0019826889038085938
0.001875162124633789
0.0019042491912841797
0.0018584728240966797
0.0018630027770996094
0.002046346664428711
0.002003192901611328
0.0019948482513427734
0.001987934112548828
0.00200653076171875
0.0020127296447753906
0.0020275115966796875
0.0020101070404052734
0.0020089149475097656
0.00201416015625
0.0020110607147216797
0.002094745635986328
0.0020079612731933594
0.002089262008666992
0.0020303726196289062
0.0020530223846435547
0.002060413360595703
0.002072572708129883
0.0020585060119628906
0.002002239227294922
0.0020599365234375
0.0023436546325683594
0.0020415782928466797
0.0020041465759277344
0.002092123031616211
0.0020210742950439453
0.0020351409912109375
0.0020189285278320312
0.0020160675048828125
0.002031087875366211
0.001987934112548828
0.002008199691772461
0.0019903182983398438
0.0019888877868652344
0.0019826889038085938
0.0019872188568115234
0.002010345458984375
0.002007722854614258
0.002031087875366211
0.0020380020141601562
0.0020122528076171875
0.002122163772583008
0.00200653076171875
0.00199127197265625
0.0019969940185546875
0.0019855499267578125
0.0020318031311035156
0.0020089149475097656
0.00199127197265625
0.001993417739868164
0.0020155906677246094
0.0020041465759277344
0.002032041549682617
0.001989126205444336
0.0019922256469726562
0.001993417739868164
0.0019910335540771484
0.0020284652709960938
0.002010822296142578
0.0019953250885009766
0.001993417739868164
0.0019884109497070312
0.0020322799682617188
0.002057313919067383
0.002065896987915039
0.0020275115966796875
0.001992940902709961
0.0020475387573242188
0.002207517623901367
0.002036571502685547
0.002026796340942383
0.0020635128021240234
0.0020666122436523438
0.0020105838775634766
0.0020203590393066406
0.002036571502685547
0.001998424530029297
0.0020334720611572266
0.001996278762817383
0.0019965171813964844
0.0019888877868652344
0.0019867420196533203
0.0019893646240234375
0.002000093460083008
0.001981496810913086
0.0020182132720947266
0.002003908157348633
0.002033233642578125
0.0020503997802734375
0.002029895782470703
0.0020134449005126953
0.0020418167114257812
0.0020084381103515625
0.0020084381103515625
0.0019943714141845703
0.001997232437133789
0.002058744430541992
0.0020189285278320312
0.0020406246185302734
0.001995563507080078
0.0020017623901367188
0.0020360946655273438
0.002004384994506836
0.0020427703857421875
0.002012014389038086
0.002001523971557617
0.002007722854614258
0.0020096302032470703
0.002020120620727539
0.002038717269897461
0.0020427703857421875
0.001997232437133789
0.0019898414611816406
0.0020644664764404297
0.0020246505737304688
0.002004861831665039
0.001996278762817383
0.002022981643676758
0.0020606517791748047
0.0020449161529541016
0.002032756805419922
0.002039194107055664
0.0020012855529785156
0.0020067691802978516
0.0020132064819335938
0.002002716064453125
0.001993894577026367
0.0019996166229248047
0.001999378204345703
0.002000093460083008
0.0020363330841064453
0.002056121826171875
0.002028942108154297
0.0020165443420410156
0.002003908157348633
0.0019991397857666016
0.001997709274291992
0.001984119415283203
0.0020360946655273438
0.002045869827270508
0.0020148754119873047
0.002015829086303711
0.0020318031311035156
0.0020096302032470703
0.0020711421966552734
0.002043008804321289
0.0020008087158203125
0.0019960403442382812
0.0019893646240234375
0.0020055770874023438
0.002010345458984375
0.002002716064453125
0.001997232437133789
0.0020165443420410156
0.0020058155059814453
0.0020389556884765625
0.002015829086303711
0.002017498016357422
0.002009868621826172
0.0019998550415039062
0.0020127296447753906
0.0020449161529541016
0.002001523971557617
0.002034425735473633
0.0020172595977783203
0.0020673274993896484
0.0019969940185546875
0.002038240432739258
0.0020084381103515625
0.0020265579223632812
0.002071857452392578
0.002012968063354492
0.0020036697387695312
0.0019986629486083984
0.0020143985748291016
0.0020012855529785156
0.0020139217376708984
0.0019998550415039062
0.0020215511322021484
0.0020072460174560547
0.0019958019256591797
0.002047300338745117
0.0020074844360351562
0.002010345458984375
0.002006053924560547
0.0019974708557128906
0.002012014389038086
0.0020003318786621094
0.0020537376403808594
0.002033710479736328
0.002038717269897461
0.0020902156829833984
0.002052783966064453
0.0020241737365722656
0.00200653076171875
0.0020072460174560547
0.0020384788513183594
0.0020101070404052734
0.002003192901611328
0.0020096302032470703
0.002035856246948242
0.002039670944213867
0.0020089149475097656
0.002005338668823242
0.002003192901611328
0.0019927024841308594
0.0020072460174560547
0.002031564712524414
0.002014636993408203
0.0020554065704345703
0.0020177364349365234
0.0020225048065185547
0.0020346641540527344
0.002280712127685547
0.0022509098052978516
0.002057790756225586
0.0020554065704345703
0.0020720958709716797
0.002087116241455078
0.002054929733276367
0.002048492431640625
0.0021021366119384766
0.0020971298217773438
0.002032041549682617
0.002056598663330078
0.0020220279693603516
0.0020208358764648438
0.002057313919067383
0.002015829086303711
0.0020122528076171875
0.0020055770874023438
0.002007007598876953
0.002012968063354492
0.0020148754119873047
0.002040863037109375
0.0020225048065185547
0.0020589828491210938
0.002008199691772461
0.00208282470703125
0.002028226852416992
0.002016305923461914
0.0020172595977783203
0.0020160675048828125
0.0021538734436035156
0.0021686553955078125
0.0021219253540039062
0.002116680145263672
0.002074003219604492
0.002037525177001953
0.0020329952239990234
0.0020287036895751953
0.0020787715911865234
0.0020253658294677734
0.0020177364349365234
0.0020661354064941406
0.0020372867584228516
0.0020194053649902344
0.002115011215209961
0.002029895782470703
0.0020651817321777344
0.002014636993408203
0.0020034313201904297
0.0020470619201660156
0.002073049545288086
0.0024356842041015625
0.0021004676818847656
0.0020737648010253906
0.0020532608032226562
0.002097606658935547
0.002111673355102539
0.0020868778228759766
0.0020427703857421875
0.002013683319091797
0.0024094581604003906
0.002084016799926758
0.0020253658294677734
0.0020780563354492188
0.002073049545288086
0.002042055130004883
0.002160310745239258
0.0019223690032958984
0.0019397735595703125
0.0019559860229492188
0.0019044876098632812
0.0018870830535888672
0.0016832351684570312
0.0016410350799560547
0.0016376972198486328
0.0016698837280273438
0.0016603469848632812
0.0015811920166015625
0.0015685558319091797
0.001588582992553711
0.001588582992553711
0.0015475749969482422
0.0017991065979003906
0.0017514228820800781
0.0017552375793457031
0.0017392635345458984
0.0017385482788085938
0.001772165298461914
0.0015683174133300781
0.0015704631805419922
0.0016369819641113281
0.0016064643859863281
0.0016660690307617188
0.001581430435180664
0.0015673637390136719
0.001573324203491211
0.0015668869018554688
0.0016396045684814453
0.0017006397247314453
0.0016505718231201172
0.0016841888427734375
0.0016634464263916016
0.0017652511596679688
0.0016257762908935547
0.0015609264373779297
0.0017576217651367188
0.0016107559204101562
0.0017023086547851562
0.0016889572143554688
0.0016484260559082031
0.001644134521484375
0.001644134521484375
