0.0031549930572509766
0.0015673637390136719
0.0013911724090576172
0.0014951229095458984
0.0014128684997558594
0.0013849735260009766
0.0015478134155273438
0.0013899803161621094
0.0013718605041503906
0.0013935565948486328
0.0014674663543701172
0.0014331340789794922
0.0014598369598388672
0.0014333724975585938
0.0013797283172607422
0.0014190673828125
0.0013699531555175781
0.0014421939849853516
0.0017132759094238281
0.0016405582427978516
0.0017609596252441406
0.0017900466918945312
0.0016734600067138672
0.001972675323486328
0.001844644546508789
0.0018584728240966797
0.0018773078918457031
0.002796649932861328
0.0019884109497070312
0.0018413066864013672
0.0017993450164794922
0.0017483234405517578
0.0018622875213623047
0.0017883777618408203
0.002057790756225586
0.0018303394317626953
0.0019958019256591797
0.0020112991333007812
0.0021021366119384766
0.0020074844360351562
0.0021822452545166016
0.0021021366119384766
0.0020563602447509766
0.0017352104187011719
0.0016064643859863281
0.00151824951171875
0.0015263557434082031
0.0015828609466552734
0.0015745162963867188
0.0015900135040283203
0.001592874526977539
0.0015707015991210938
0.0016396045684814453
0.0016732215881347656
0.0015370845794677734
0.001543283462524414
0.0015826225280761719
0.0015561580657958984
0.0015552043914794922
0.0015897750854492188
0.001611471176147461
0.0017037391662597656
0.0018932819366455078
0.0018947124481201172
0.001821279525756836
0.0018014907836914062
0.0018649101257324219
0.0018672943115234375
0.0017743110656738281
0.001726388931274414
0.0017693042755126953
0.0017833709716796875
0.0018742084503173828
0.0019345283508300781
0.0017251968383789062
0.0017132759094238281
0.0017392635345458984
0.0017533302307128906
0.0018186569213867188
0.0014767646789550781
0.0013251304626464844
0.0012431144714355469
0.0013954639434814453
0.0014731884002685547
0.0012507438659667969
0.0012440681457519531
0.0012273788452148438
0.0012428760528564453
0.0012285709381103516
0.001222372055053711
0.00127410888671875
0.001226663589477539
0.0012586116790771484
0.0012402534484863281
0.0012559890747070312
0.0012354850769042969
0.0012171268463134766
0.001299142837524414
0.0012221336364746094
0.0012209415435791016
0.0015447139739990234
0.0014636516571044922
0.001432180404663086
0.0014629364013671875
0.0015070438385009766
0.00142669677734375
0.0014960765838623047
0.00144195556640625
0.0015711784362792969
0.001459360122680664
0.0012967586517333984
0.0014271736145019531
0.0013947486877441406
0.001230001449584961
0.0018756389617919922
0.0018548965454101562
0.0019266605377197266
0.0018961429595947266
0.0018970966339111328
0.0015015602111816406
0.0013954639434814453
0.0014874935150146484
0.0015511512756347656
0.0016193389892578125
0.0014946460723876953
0.0015301704406738281
0.001556396484375
0.0014803409576416016
0.0016927719116210938
0.0015115737915039062
0.0014467239379882812
0.0013396739959716797
0.0014369487762451172
0.0013782978057861328
0.0013332366943359375
0.0013949871063232422
0.001394510269165039
0.0013370513916015625
0.0013356208801269531
0.0014367103576660156
0.001531839370727539
0.0013284683227539062
0.0013034343719482422
0.0012128353118896484
0.0011959075927734375
0.0013370513916015625
0.001238107681274414
0.0011949539184570312
0.001184701919555664
0.0013642311096191406
0.0013511180877685547
0.0013427734375
0.0047914981842041016
0.0014824867248535156
0.0033617019653320312
0.001611948013305664
0.002660512924194336
0.0017180442810058594
0.0027756690979003906
0.0015363693237304688
0.0014729499816894531
0.0013289451599121094
0.0013751983642578125
0.0013692378997802734
0.0013246536254882812
0.0013015270233154297
0.0013017654418945312
0.0017380714416503906
0.0014023780822753906
0.0013899803161621094
0.0013782978057861328
0.0014812946319580078
0.0013911724090576172
0.0014162063598632812
0.0014274120330810547
0.0014147758483886719
0.0015342235565185547
0.0014846324920654297
0.0014162063598632812
0.0015287399291992188
0.0016067028045654297
0.0014235973358154297
0.0014009475708007812
0.0016064643859863281
0.0015959739685058594
0.0014450550079345703
0.001554250717163086
0.0021915435791015625
0.0020325183868408203
0.0022363662719726562
0.0015740394592285156
0.0020051002502441406
0.002164602279663086
0.0015630722045898438
0.001619100570678711
0.001840829849243164
0.0017926692962646484
0.0018112659454345703
0.0018994808197021484
0.0018067359924316406
0.0018239021301269531
0.0017590522766113281
0.0018575191497802734
0.0019681453704833984
0.0018568038940429688
0.0019702911376953125
0.0020058155059814453
0.001979351043701172
0.002011537551879883
0.00208282470703125
0.002080678939819336
0.0020427703857421875
0.0019757747650146484
0.0021016597747802734
0.0021915435791015625
0.002124786376953125
0.0019583702087402344
0.0019686222076416016
0.001966238021850586
0.002099752426147461
0.0019693374633789062
0.0021085739135742188
0.0020194053649902344
0.0019855499267578125
0.0021543502807617188
0.0020928382873535156
0.002180337905883789
0.001994609832763672
0.001951456069946289
0.0020096302032470703
0.0019829273223876953
0.004667043685913086
0.0018672943115234375
0.004450559616088867
0.0028285980224609375
0.0026018619537353516
0.0020084381103515625
0.0017714500427246094
0.0029344558715820312
0.0019109249114990234
0.0014755725860595703
0.0015263557434082031
0.001451730728149414
0.0014007091522216797
0.0014023780822753906
0.0014226436614990234
0.0013756752014160156
0.0013570785522460938
0.001455545425415039
0.0015573501586914062
0.0013535022735595703
0.0013628005981445312
0.0014014244079589844
0.001398324966430664
0.0013766288757324219
0.0013942718505859375
0.0013689994812011719
0.0013275146484375
0.0013036727905273438
0.001447439193725586
0.0014812946319580078
0.001547098159790039
0.0015077590942382812
0.0015015602111816406
0.0015170574188232422
0.001466512680053711
0.0014858245849609375
0.002499103546142578
0.001758575439453125
0.004338979721069336
0.0021278858184814453
0.0016734600067138672
0.0018072128295898438
0.001963376998901367
0.0018820762634277344
0.0019326210021972656
0.0018908977508544922
0.0017218589782714844
0.002485036849975586
0.002477884292602539
0.0021736621856689453
0.002618074417114258
0.003081083297729492
0.003736734390258789
0.0021767616271972656
0.0016553401947021484
0.0018508434295654297
0.001863718032836914
0.0017917156219482422
0.0020275115966796875
0.0022339820861816406
0.0016543865203857422
0.0020797252655029297
0.0014274120330810547
0.0016536712646484375
0.002027750015258789
0.0014102458953857422
0.0019054412841796875
0.0015368461608886719
0.001547098159790039
0.0019207000732421875
0.002780914306640625
0.0020999908447265625
0.0021669864654541016
0.002089977264404297
0.0024313926696777344
0.00244903564453125
0.0020580291748046875
0.0019445419311523438
0.0017387866973876953
0.002050638198852539
0.002145051956176758
0.0018224716186523438
0.0017669200897216797
0.0015075206756591797
0.0015513896942138672
0.0015306472778320312
0.0020706653594970703
0.0017840862274169922
0.0015251636505126953
0.0014786720275878906
0.0018589496612548828
0.0016596317291259766
0.0014786720275878906
0.001621246337890625
0.0015766620635986328
0.0015106201171875
0.0015320777893066406
0.001562356948852539
0.0016186237335205078
0.0014963150024414062
0.0013947486877441406
0.0014390945434570312
0.0015294551849365234
0.0018780231475830078
0.0015156269073486328
0.0014750957489013672
0.001783132553100586
0.0015027523040771484
0.0014743804931640625
0.0018296241760253906
0.0016715526580810547
0.0015540122985839844
0.0017375946044921875
0.0019223690032958984
0.0017635822296142578
0.0015332698822021484
0.0015914440155029297
0.0016546249389648438
0.001458883285522461
0.0016107559204101562
0.0016510486602783203
0.0018687248229980469
0.0017750263214111328
0.0016219615936279297
0.0014617443084716797
0.0016427040100097656
0.0016579627990722656
0.0017926692962646484
0.0018765926361083984
0.001590728759765625
0.0016179084777832031
0.0017502307891845703
0.001802682876586914
0.0016961097717285156
0.0014984607696533203
0.00142669677734375
0.0017163753509521484
0.0016579627990722656
0.0015587806701660156
0.0023453235626220703
0.001474142074584961
0.0014958381652832031
0.001627206802368164
0.0017855167388916016
0.0018820762634277344
0.0018315315246582031
0.0018153190612792969
0.00160980224609375
0.0016667842864990234
0.0015697479248046875
0.0014951229095458984
0.0019314289093017578
0.0016074180603027344
0.0014734268188476562
0.0016720294952392578
0.0015773773193359375
0.0016875267028808594
0.0017650127410888672
0.0023496150970458984
0.001874685287475586
0.0015842914581298828
0.0015621185302734375
0.0016040802001953125
0.002227306365966797
0.0016727447509765625
0.0014996528625488281
0.0017058849334716797
0.0018754005432128906
0.0017142295837402344
0.001911163330078125
0.0014493465423583984
0.001508474349975586
0.0014574527740478516
0.001590728759765625
0.0014302730560302734
0.0014259815216064453
0.001451253890991211
0.0013384819030761719
0.0015473365783691406
0.0016257762908935547
0.0013124942779541016
0.0013136863708496094
0.0013082027435302734
0.0011756420135498047
0.0011413097381591797
0.0011587142944335938
0.00115203857421875
0.0011849403381347656
0.0012636184692382812
0.0012652873992919922
0.0012755393981933594
0.0012526512145996094
0.0011429786682128906
0.0012354850769042969
0.0011417865753173828
0.0013644695281982422
0.001438140869140625
0.0017940998077392578
0.001500844955444336
0.001489400863647461
0.0014986991882324219
0.0015759468078613281
0.0014841556549072266
0.001392364501953125
0.0013446807861328125
0.001562356948852539
0.001462697982788086
0.0014505386352539062
0.0014371871948242188
0.001447439193725586
0.0013308525085449219
0.0013756752014160156
0.0019507408142089844
0.0015406608581542969
0.0013399124145507812
0.0014729499816894531
0.0015513896942138672
0.001615285873413086
0.001598358154296875
0.0015912055969238281
0.0016369819641113281
0.0011997222900390625
0.001195669174194336
0.0011947154998779297
0.0012028217315673828
0.001171112060546875
0.001171112060546875
0.0011701583862304688
0.0011675357818603516
0.0011827945709228516
0.0011682510375976562
0.0011625289916992188
0.0011594295501708984
0.0011599063873291016
0.0011830329895019531
0.0012054443359375
0.0011599063873291016
0.0011556148529052734
0.0014874935150146484
0.0013239383697509766
0.0012052059173583984
0.0011830329895019531
0.0011992454528808594
0.0011889934539794922
0.0014157295227050781
0.00121307373046875
0.0012640953063964844
0.0012335777282714844
0.0011916160583496094
0.0011775493621826172
0.0011801719665527344
0.001169443130493164
0.0011734962463378906
0.0011670589447021484
0.0011725425720214844
0.0017993450164794922
0.0017392635345458984
0.0016252994537353516
0.001596689224243164
0.0017702579498291016
0.0018477439880371094
0.0018088817596435547
0.0016734600067138672
0.001501321792602539
0.001537322998046875
0.0014731884002685547
0.002004384994506836
0.002059459686279297
0.0037157535552978516
0.0020308494567871094
0.002031564712524414
0.0014369487762451172
0.00138092041015625
0.001356363296508789
0.001344442367553711
0.0013549327850341797
0.0014803409576416016
0.001299142837524414
0.0011684894561767578
0.0011293888092041016
0.0011208057403564453
0.0011639595031738281
0.0011188983917236328
0.0011138916015625
0.0011115074157714844
0.0011098384857177734
0.0011088848114013672
0.0011026859283447266
0.0013277530670166016
0.0013096332550048828
0.001140594482421875
0.001119852066040039
0.0011568069458007812
0.0011582374572753906
0.0012583732604980469
0.0011279582977294922
0.0011110305786132812
0.001108407974243164
0.0011157989501953125
0.0011255741119384766
0.0011043548583984375
0.0011055469512939453
0.0010993480682373047
0.0011026859283447266
0.0011339187622070312
0.0010993480682373047
0.0011157989501953125
0.0017154216766357422
0.001699209213256836
0.0016908645629882812
0.001703500747680664
0.0017559528350830078
0.0018749237060546875
0.001875162124633789
0.0019698143005371094
0.0018842220306396484
0.001954793930053711
0.0020401477813720703
0.001976490020751953
0.0019412040710449219
0.001953125
0.002178192138671875
0.0013365745544433594
0.0011947154998779297
0.0012180805206298828
0.0011837482452392578
0.0011730194091796875
0.0011858940124511719
0.0011687278747558594
0.0011670589447021484
0.0011858940124511719
0.00116729736328125
0.0011646747589111328
0.0011639595031738281
0.0011620521545410156
0.0011641979217529297
0.00116729736328125
0.0011653900146484375
0.0011773109436035156
0.0011992454528808594
0.0011661052703857422
0.0011622905731201172
0.0011968612670898438
0.0011866092681884766
0.0011820793151855469
0.0011792182922363281
0.001199483871459961
0.0011813640594482422
0.0011749267578125
0.0011734962463378906
0.001199483871459961
0.0011734962463378906
0.001168966293334961
0.0011742115020751953
0.0011892318725585938
0.0011754035949707031
0.0011739730834960938
0.0011954307556152344
0.002093791961669922
0.002074003219604492
0.002075672149658203
0.0021278858184814453
0.0021355152130126953
0.0018868446350097656
0.001901388168334961
0.0018668174743652344
0.001863718032836914
0.0018694400787353516
0.0018639564514160156
0.001865386962890625
0.0018680095672607422
0.0018651485443115234
0.001898050308227539
0.0018744468688964844
0.0018606185913085938
0.0018811225891113281
0.001886606216430664
0.0019028186798095703
0.0018639564514160156
0.0018987655639648438
0.0018627643585205078
0.0018634796142578125
0.0018951892852783203
0.0019011497497558594
0.0018885135650634766
0.0018639564514160156
0.0018677711486816406
0.0018603801727294922
0.0018765926361083984
0.0018613338470458984
0.0018699169158935547
0.0018551349639892578
0.0018656253814697266
0.0018665790557861328
0.0018892288208007812
0.00186920166015625
0.0018885135650634766
0.0018584728240966797
0.001903533935546875
0.0018625259399414062
0.0018668174743652344
0.001873016357421875
0.0018801689147949219
0.0018627643585205078
0.0018720626831054688
0.0018589496612548828
0.0018949508666992188
0.0018815994262695312
0.0018663406372070312
0.0018603801727294922
0.0018587112426757812
0.0018508434295654297
0.0018587112426757812
0.0018532276153564453
0.0019066333770751953
0.001867532730102539
0.0018966197967529297
0.0018994808197021484
0.0018835067749023438
0.0019006729125976562
0.001870870590209961
0.0018668174743652344
0.001865386962890625
0.0018622875213623047
0.0018963813781738281
0.0018696784973144531
0.0018665790557861328
0.0019180774688720703
0.0018973350524902344
0.0019118785858154297
0.0018913745880126953
0.0019001960754394531
0.0019378662109375
0.001890420913696289
0.0019249916076660156
0.0018742084503173828
0.001874685287475586
0.0018742084503173828
0.0021975040435791016
0.0021827220916748047
0.0021142959594726562
0.0019216537475585938
0.0019845962524414062
0.0019011497497558594
0.0019102096557617188
0.0018985271453857422
0.0019021034240722656
0.0018734931945800781
0.0018744468688964844
0.0018725395202636719
0.0018961429595947266
0.0018863677978515625
0.001889944076538086
0.0018956661224365234
0.0018947124481201172
0.0018765926361083984
0.0018663406372070312
0.001867055892944336
0.0018634796142578125
0.001863718032836914
0.0019032955169677734
0.0019152164459228516
0.001961946487426758
0.002028942108154297
0.001965045928955078
0.0019295215606689453
0.0018994808197021484
0.0018782615661621094
0.0018720626831054688
0.0018727779388427734
0.0018665790557861328
0.0018727779388427734
0.0018961429595947266
0.00188446044921875
0.0019268989562988281
0.0018990039825439453
0.0019636154174804688
0.0018720626831054688
0.0018873214721679688
0.0018727779388427734
0.0018801689147949219
0.0018928050994873047
0.0018839836120605469
0.00208282470703125
0.0019097328186035156
0.0019011497497558594
0.001928567886352539
0.0019185543060302734
0.0019216537475585938
0.0018825531005859375
0.0018830299377441406
0.0018687248229980469
0.0018935203552246094
0.0018734931945800781
0.0018763542175292969
0.001895904541015625
0.0018992424011230469
0.0019152164459228516
0.0018744468688964844
0.001909494400024414
0.0018954277038574219
0.0018756389617919922
0.001886129379272461
0.0019245147705078125
0.001985788345336914
0.0019011497497558594
0.0018978118896484375
0.0018837451934814453
0.0019757747650146484
0.0019609928131103516
0.00191497802734375
0.001893758773803711
0.0019443035125732422
0.0019176006317138672
0.0019106864929199219
0.0019664764404296875
0.0019681453704833984
0.0030870437622070312
0.0019335746765136719
0.0019075870513916016
0.0019121170043945312
0.0019435882568359375
0.0019512176513671875
0.0018870830535888672
0.001878499984741211
0.001874685287475586
0.0018756389617919922
0.0018761157989501953
0.0018815994262695312
0.001893758773803711
0.0019044876098632812
0.0018754005432128906
0.0019114017486572266
0.0018887519836425781
0.0019307136535644531
0.0018856525421142578
0.001867532730102539
0.0018706321716308594
0.0019068717956542969
0.0018687248229980469
0.0018732547760009766
0.0018761157989501953
0.0018787384033203125
0.0019268989562988281
0.0018742084503173828
0.001905202865600586
0.0018775463104248047
0.0018706321716308594
0.00186920166015625
0.001871347427368164
0.0018894672393798828
0.0018720626831054688
0.0018742084503173828
0.0018677711486816406
0.0019078254699707031
0.0019314289093017578
0.001889944076538086
0.0018773078918457031
0.0018947124481201172
0.0018792152404785156
0.0018749237060546875
0.0018701553344726562
0.0018718242645263672
0.001875162124633789
0.0019462108612060547
0.0018849372863769531
0.0018799304962158203
0.001882791519165039
0.001911163330078125
0.001901388168334961
0.0019075870513916016
0.001870870590209961
0.001873016357421875
0.001871347427368164
0.0018689632415771484
0.001878976821899414
0.0018749237060546875
0.0018651485443115234
0.0019085407257080078
0.0018765926361083984
0.0018892288208007812
0.0018725395202636719
0.0018787384033203125
0.0018782615661621094
0.002178668975830078
0.0020508766174316406
0.0017592906951904297
0.0017590522766113281
0.0017409324645996094
0.001750946044921875
0.0017426013946533203
0.0017857551574707031
0.0017285346984863281
0.0017290115356445312
0.0017180442810058594
0.0017931461334228516
0.0019490718841552734
0.0018999576568603516
0.0018925666809082031
0.0018830299377441406
0.002173185348510742
0.001901865005493164
0.001888275146484375
0.0018546581268310547
0.0018651485443115234
0.0018622875213623047
0.0018780231475830078
0.0018591880798339844
0.001856088638305664
0.0018529891967773438
0.0018606185913085938
0.0018625259399414062
0.001870870590209961
0.0018434524536132812
0.0019032955169677734
0.0018944740295410156
0.0018939971923828125
0.0018792152404785156
0.0018837451934814453
0.001880645751953125
0.001878499984741211
0.0018813610076904297
0.0018756389617919922
0.0018944740295410156
0.0018863677978515625
0.0019114017486572266
0.0019257068634033203
0.001882314682006836
0.0018780231475830078
0.001878499984741211
0.0018815994262695312
0.0018935203552246094
0.0018930435180664062
0.0019130706787109375
0.0018832683563232422
0.0018780231475830078
0.001924276351928711
0.0019080638885498047
0.0018792152404785156
0.0018742084503173828
0.0018768310546875
0.0018839836120605469
0.0018961429595947266
0.0018763542175292969
0.0018794536590576172
0.0018956661224365234
0.0018889904022216797
0.001875162124633789
0.001898050308227539
0.0018744468688964844
0.0018737316131591797
0.0018734931945800781
0.001901388168334961
0.0018737316131591797
0.0018932819366455078
0.0018966197967529297
0.001878976821899414
0.0019078254699707031
0.0019016265869140625
0.0018799304962158203
0.0019040107727050781
0.00186920166015625
0.0018858909606933594
0.0018763542175292969
0.001890420913696289
0.001880645751953125
0.0018794536590576172
0.0018744468688964844
0.0020668506622314453
0.0019407272338867188
0.001905202865600586
0.001987457275390625
0.0019021034240722656
0.0019092559814453125
0.001890420913696289
0.0018832683563232422
0.0018875598907470703
0.0018801689147949219
0.0019140243530273438
0.0018868446350097656
0.0018770694732666016
0.0019519329071044922
0.0019266605377197266
0.001911163330078125
0.0018813610076904297
0.0019135475158691406
0.0018875598907470703
0.0018830299377441406
0.0019412040710449219
0.0019059181213378906
0.00189208984375
0.0018837451934814453
0.001901388168334961
0.0019268989562988281
0.0019257068634033203
0.001903533935546875
0.0018906593322753906
0.0018842220306396484
0.001880645751953125
0.0018858909606933594
0.0018835067749023438
0.001878976821899414
0.0018818378448486328
0.0018749237060546875
0.0018863677978515625
0.0018954277038574219
0.001909494400024414
0.0018916130065917969
0.0018837451934814453
0.0018889904022216797
0.0019075870513916016
0.0018801689147949219
0.0018765926361083984
0.001874685287475586
0.001947164535522461
0.001912832260131836
0.0018849372863769531
0.0019085407257080078
0.0018858909606933594
0.0019085407257080078
0.0018765926361083984
0.0018796920776367188
0.0018820762634277344
0.0018799304962158203
0.0019185543060302734
0.001878976821899414
0.0018842220306396484
0.0018982887268066406
0.0018954277038574219
0.0018832683563232422
0.0018796920776367188
0.0019023418426513672
0.0018854141235351562
0.0018970966339111328
0.0019106864929199219
0.0019011497497558594
0.0018849372863769531
0.0018794536590576172
0.0018961429595947266
0.0018939971923828125
0.0019192695617675781
0.0019321441650390625
0.0018792152404785156
0.0018787384033203125
0.0018742084503173828
0.001954793930053711
0.0018887519836425781
0.0018782615661621094
0.0018749237060546875
0.0018792152404785156
0.0019683837890625
0.0018880367279052734
0.0018777847290039062
0.0018758773803710938
0.0018727779388427734
0.0018756389617919922
0.0018851757049560547
0.0018763542175292969
0.001905202865600586
0.0018870830535888672
0.0018808841705322266
0.0018944740295410156
0.0019180774688720703
0.0019412040710449219
0.0018978118896484375
0.0019233226776123047
0.0019388198852539062
0.0019769668579101562
0.002011537551879883
0.0019068717956542969
0.0018911361694335938
0.0019021034240722656
0.0018951892852783203
0.0019314289093017578
0.0019195079803466797
0.0019159317016601562
0.0018932819366455078
0.0018908977508544922
0.0018930435180664062
0.0018875598907470703
0.0018897056579589844
0.0019419193267822266
0.001753091812133789
0.0017447471618652344
0.001758575439453125
0.0018067359924316406
0.0018849372863769531
0.0014767646789550781
0.0014982223510742188
0.0014600753784179688
0.001463174819946289
0.0015327930450439453
0.0015833377838134766
0.0015361309051513672
0.001535654067993164
0.0015499591827392578
0.0015397071838378906
0.001489877700805664
0.0014650821685791016
0.0014619827270507812
0.00145721435546875
0.0014576911926269531
0.0016489028930664062
0.0016274452209472656
0.0016279220581054688
0.0016436576843261719
0.0016317367553710938
0.0016701221466064453
0.0015041828155517578
0.0015103816986083984
0.0014889240264892578
0.0016489028930664062
0.0015211105346679688
0.0014812946319580078
0.0015020370483398438
0.0014719963073730469
0.001468658447265625
0.0015425682067871094
0.0015692710876464844
0.0015559196472167969
0.0015685558319091797
0.0015299320220947266
0.0015349388122558594
0.0014781951904296875
0.0014693737030029297
0.0014638900756835938
0.0014598369598388672
0.0014564990997314453
0.001708984375
0.0016603469848632812
0.0016503334045410156
0.00164794921875
0.0016658306121826172
0.0016736984252929688
0.0015757083892822266
0.0015518665313720703
0.001657724380493164
0.001519918441772461
0.0015680789947509766
0.001432180404663086
0.00141143798828125
0.0014035701751708984
0.001405477523803711
0.0014765262603759766
0.001558542251586914
0.0015785694122314453
0.0015516281127929688
0.001542806625366211
0.0015380382537841797
0.0014805793762207031
0.0014946460723876953
0.0014674663543701172
0.0014693737030029297
0.0014643669128417969
0.001641988754272461
0.001691579818725586
0.0016705989837646484
0.0016477108001708984
0.0016586780548095703
0.0014393329620361328
0.0014317035675048828
0.0014100074768066406
0.0014183521270751953
0.0013966560363769531
0.0015654563903808594
0.0015773773193359375
0.001566171646118164
0.0015697479248046875
0.001565694808959961
0.0015511512756347656
0.0015597343444824219
0.0015408992767333984
0.0015380382537841797
0.0017685890197753906
0.0015096664428710938
0.0014967918395996094
0.0014772415161132812
0.0014977455139160156
0.0015037059783935547
0.0015573501586914062
0.0015571117401123047
0.0015397071838378906
0.001542806625366211
0.0015382766723632812
0.0016107559204101562
0.001470804214477539
0.0014760494232177734
0.001462697982788086
0.001470804214477539
0.0014729499816894531
0.0015900135040283203
0.0015361309051513672
0.0015416145324707031
0.0015387535095214844
0.0015349388122558594
0.0015070438385009766
0.0014967918395996094
0.0014939308166503906
0.0014815330505371094
0.0014827251434326172
0.001682281494140625
0.0016741752624511719
0.0016374588012695312
0.0016300678253173828
0.0016300678253173828
0.001668691635131836
0.0014736652374267578
0.0014615058898925781
0.0015196800231933594
0.0014758110046386719
0.0015380382537841797
0.001819610595703125
0.0018031597137451172
0.0018351078033447266
0.0017857551574707031
0.0019147396087646484
0.0019266605377197266
0.0019102096557617188
0.001978635787963867
0.0019116401672363281
0.001992464065551758
0.0019180774688720703
0.001955747604370117
0.001916646957397461
0.0019161701202392578
0.001924753189086914
0.0019023418426513672
0.001890420913696289
0.00191497802734375
0.0018913745880126953
0.00189208984375
0.0018999576568603516
0.0018918514251708984
0.001893758773803711
0.0018911361694335938
0.0020112991333007812
0.0020329952239990234
0.001935720443725586
0.0019114017486572266
0.0019028186798095703
0.001893758773803711
0.0019378662109375
0.0018923282623291016
0.0018916130065917969
0.0018856525421142578
0.0019485950469970703
0.0018911361694335938
0.0018956661224365234
0.0018854141235351562
0.0018835067749023438
0.001888275146484375
0.001888275146484375
0.0018894672393798828
0.0018873214721679688
0.0018837451934814453
0.0019197463989257812
0.001905679702758789
0.0019328594207763672
0.0019116401672363281
0.002493619918823242
0.002224445343017578
0.0019745826721191406
0.0020689964294433594
0.0017921924591064453
0.0017976760864257812
0.0017671585083007812
0.00179290771484375
0.0018460750579833984
0.001954793930053711
0.001913309097290039
0.001918792724609375
0.0019025802612304688
0.0019011497497558594
0.0019054412841796875
0.0019061565399169922
0.0018987655639648438
0.0018932819366455078
0.001890420913696289
0.00189971923828125
0.0019216537475585938
0.0019114017486572266
0.001928091049194336
0.0018913745880126953
0.0019006729125976562
0.0018932819366455078
0.0019135475158691406
0.0018939971923828125
0.0018885135650634766
0.0019381046295166016
0.0019040107727050781
0.0018923282623291016
0.0019214153289794922
0.0019173622131347656
0.0019283294677734375
0.0018930435180664062
0.0019135475158691406
0.0019073486328125
0.0018932819366455078
0.0018939971923828125
0.001903533935546875
0.0018880367279052734
0.0018913745880126953
0.001909494400024414
0.001889944076538086
0.0019211769104003906
0.0018894672393798828
0.0018908977508544922
0.0018916130065917969
0.0018901824951171875
0.0018947124481201172
0.001889944076538086
0.0018923282623291016
0.002183198928833008
0.0020143985748291016
0.0020360946655273438
0.0020046234130859375
0.001936197280883789
0.0019712448120117188
0.002066373825073242
0.0019817352294921875
0.0019681453704833984
0.0019195079803466797
0.001962900161743164
0.001920461654663086
0.0019388198852539062
0.0019278526306152344
0.0019328594207763672
0.0019290447235107422
0.0019016265869140625
0.0019044876098632812
0.001909494400024414
0.0018999576568603516
0.0018992424011230469
0.0018973350524902344
0.0019021034240722656
0.0019071102142333984
0.001913309097290039
0.0020208358764648438
0.0019905567169189453
0.001913309097290039
0.0019178390502929688
0.0018992424011230469
0.0019025802612304688
0.0018956661224365234
0.0018951892852783203
0.0020067691802978516
0.0019207000732421875
0.0019092559814453125
0.0019125938415527344
0.0019042491912841797
0.0019512176513671875
0.0018990039825439453
0.001895904541015625
0.0018994808197021484
0.0020275115966796875
0.001909494400024414
0.0019075870513916016
0.0019001960754394531
0.0018973350524902344
0.0019023418426513672
0.0019125938415527344
0.0019440650939941406
0.0019009113311767578
0.0019011497497558594
0.001928091049194336
0.0019099712371826172
0.0019364356994628906
0.001901865005493164
0.0018935203552246094
0.0018939971923828125
0.0019135475158691406
0.0019168853759765625
0.0019333362579345703
0.0019505023956298828
0.0019190311431884766
0.0019304752349853516
0.0019097328186035156
0.0019044876098632812
0.0019190311431884766
0.0019044876098632812
0.0018966197967529297
0.0018978118896484375
0.0019452571868896484
0.0019066333770751953
0.0019359588623046875
0.001893758773803711
0.0018963813781738281
0.0019373893737792969
0.001905679702758789
0.001901388168334961
0.0019063949584960938
0.0018985271453857422
0.0018954277038574219
0.0019023418426513672
0.0019159317016601562
0.0019102096557617188
0.0019414424896240234
0.0019075870513916016
0.0020117759704589844
0.0019218921661376953
0.0019116401672363281
0.0019083023071289062
0.0019021034240722656
0.0019106864929199219
0.0019421577453613281
0.00194549560546875
0.0019106864929199219
0.0019376277923583984
0.0019381046295166016
0.0019063949584960938
0.0018999576568603516
0.0019001960754394531
0.001905202865600586
0.0019011497497558594
0.0019261837005615234
0.0019142627716064453
0.00189971923828125
0.0019164085388183594
0.0019097328186035156
0.0019283294677734375
0.001898050308227539
0.0018978118896484375
0.0019054412841796875
0.0019028186798095703
0.0019059181213378906
0.001898050308227539
0.0019207000732421875
0.0019059181213378906
0.001909017562866211
0.0019104480743408203
0.0019505023956298828
0.0019071102142333984
0.0020990371704101562
0.0019466876983642578
0.0019817352294921875
0.0019490718841552734
0.0019214153289794922
0.0019078254699707031
0.0019402503967285156
0.001958131790161133
0.0019469261169433594
0.0019316673278808594
0.0019216537475585938
0.0019059181213378906
0.001977205276489258
0.001903533935546875
0.0019211769104003906
0.0019004344940185547
0.0018949508666992188
0.0019040107727050781
0.001909017562866211
0.0019159317016601562
0.0018994808197021484
0.001928091049194336
0.0019009113311767578
0.001939535140991211
0.0019001960754394531
0.001897573471069336
0.0019006729125976562
0.0019016265869140625
0.0019354820251464844
0.0018990039825439453
0.0018916130065917969
0.0019392967224121094
0.001961946487426758
0.0019259452819824219
0.0019199848175048828
0.0019040107727050781
0.0019009113311767578
0.0019011497497558594
0.0019032955169677734
0.0019102096557617188
0.001901388168334961
0.0019822120666503906
0.001956462860107422
0.0019207000732421875
0.0019469261169433594
0.001905202865600586
0.0019800662994384766
0.0019121170043945312
0.0018966197967529297
0.0019042491912841797
0.0019278526306152344
0.0019137859344482422
0.001903533935546875
0.0019023418426513672
0.0019540786743164062
0.0019249916076660156
0.0019419193267822266
0.001957416534423828
0.0019152164459228516
0.0019042491912841797
0.0019233226776123047
0.0019109249114990234
0.001905202865600586
0.001928567886352539
0.0019295215606689453
0.0019440650939941406
0.0019104480743408203
0.0019445419311523438
0.0019004344940185547
0.0019037723541259766
0.0019037723541259766
0.001905679702758789
0.0019004344940185547
0.0019028186798095703
0.0019037723541259766
0.0019109249114990234
0.001928567886352539
0.0021283626556396484
0.0024466514587402344
0.0019745826721191406
0.001941680908203125
0.0019321441650390625
0.0019345283508300781
0.0019140243530273438
0.0019121170043945312
0.001964092254638672
0.0019130706787109375
0.0019326210021972656
0.001928091049194336
0.001947164535522461
0.0019724369049072266
0.0019254684448242188
0.0019116401672363281
0.0019268989562988281
0.0019145011901855469
0.001961231231689453
0.0019338130950927734
0.0019159317016601562
0.0019392967224121094
0.0019428730010986328
0.0019371509552001953
0.001979827880859375
0.0019383430480957031
0.0019392967224121094
0.0019366741180419922
0.0019228458404541016
0.0019314289093017578
0.0019512176513671875
0.001924276351928711
0.0019147396087646484
0.001936197280883789
0.0019762516021728516
0.0019376277923583984
0.001962423324584961
0.0019712448120117188
0.0019407272338867188
0.0019195079803466797
0.0019207000732421875
0.0019092559814453125
0.0019159317016601562
0.0019042491912841797
0.0019173622131347656
0.0019142627716064453
0.0019428730010986328
0.0019443035125732422
0.001911163330078125
0.0019495487213134766
0.0019154548645019531
0.0019097328186035156
0.0019097328186035156
0.001901388168334961
0.0019450187683105469
0.0019309520721435547
0.0019140243530273438
0.0019512176513671875
0.002468109130859375
0.002215862274169922
0.0021288394927978516
0.001961946487426758
0.001981019973754883
0.0019347667694091797
0.0019335746765136719
0.001964569091796875
0.0019276142120361328
0.001918792724609375
0.0019316673278808594
0.0019550323486328125
0.0019674301147460938
0.0019109249114990234
0.0019183158874511719
0.0019402503967285156
0.0019197463989257812
0.0019292831420898438
0.0019342899322509766
0.001940011978149414
0.0019249916076660156
0.0019245147705078125
0.0019686222076416016
0.0019466876983642578
0.001958131790161133
0.0019176006317138672
0.001912832260131836
0.0019600391387939453
0.0019216537475585938
0.0019347667694091797
0.0019183158874511719
0.0019123554229736328
0.00191497802734375
0.001926422119140625
0.0019202232360839844
0.0019459724426269531
0.0019147396087646484
0.001953125
0.0019257068634033203
0.001974821090698242
0.001924753189086914
0.0019228458404541016
0.00200653076171875
0.001966238021850586
0.0019230842590332031
0.0019559860229492188
0.0019335746765136719
0.0019807815551757812
0.0019578933715820312
0.0019197463989257812
0.0019228458404541016
0.0019125938415527344
0.001926422119140625
0.0019252300262451172
0.001920938491821289
0.0019130706787109375
0.0019137859344482422
0.0019371509552001953
0.0019409656524658203
0.0019109249114990234
0.0019118785858154297
0.0019123554229736328
0.0019145011901855469
0.001943349838256836
0.0019168853759765625
0.003312826156616211
0.002312183380126953
0.002213001251220703
0.0020682811737060547
0.001886606216430664
0.0018477439880371094
0.0018041133880615234
0.0018274784088134766
0.0018200874328613281
0.0019919872283935547
0.0019474029541015625
0.001931905746459961
0.0019199848175048828
0.001993417739868164
0.0019757747650146484
0.00194549560546875
0.001969575881958008
0.001922607421875
0.0019197463989257812
0.0019309520721435547
0.0019245147705078125
0.0019762516021728516
0.0019261837005615234
0.0019156932830810547
0.0019521713256835938
0.00191497802734375
0.0020046234130859375
0.0019457340240478516
0.001924753189086914
0.001920938491821289
0.0019199848175048828
0.0019142627716064453
0.0020532608032226562
0.0019736289978027344
0.0019330978393554688
0.0019288063049316406
0.001920461654663086
0.0019412040710449219
0.0019431114196777344
0.0019505023956298828
0.0019254684448242188
0.001953125
0.0019176006317138672
0.0019631385803222656
0.0019316673278808594
0.0019321441650390625
0.0019273757934570312
0.0019183158874511719
0.0019376277923583984
0.0019354820251464844
0.001984834671020508
0.0019221305847167969
0.0019183158874511719
0.00191497802734375
0.0019378662109375
0.0019197463989257812
0.0019276142120361328
0.0019185543060302734
0.0019521713256835938
0.0019137859344482422
0.001936197280883789
0.0020253658294677734
0.0019741058349609375
0.001924276351928711
0.0019505023956298828
0.0019218921661376953
0.001968860626220703
0.001924753189086914
0.0019156932830810547
0.0019164085388183594
0.001912832260131836
0.0019299983978271484
0.0019230842590332031
0.002120494842529297
0.001936197280883789
0.0019230842590332031
0.001965045928955078
0.0019261837005615234
0.0019276142120361328
0.0019202232360839844
0.0019211769104003906
0.001918792724609375
0.0019443035125732422
0.0019428730010986328
0.001922607421875
0.0019488334655761719
0.0019345283508300781
0.0019268989562988281
0.0019299983978271484
0.0019273757934570312
0.0021173954010009766
0.0019605159759521484
0.0016007423400878906
0.0015604496002197266
0.0015652179718017578
0.0015697479248046875
0.001596689224243164
0.0015113353729248047
0.001497507095336914
0.0014803409576416016
0.001485586166381836
0.001485586166381836
0.0015861988067626953
0.0016942024230957031
0.0016028881072998047
0.0015673637390136719
0.0015959739685058594
0.0015914440155029297
0.0016112327575683594
0.0015850067138671875
0.0015931129455566406
0.0016548633575439453
0.0016667842864990234
0.0015082359313964844
0.0015039443969726562
0.0015075206756591797
0.0014951229095458984
0.0015666484832763672
0.0016176700592041016
0.0015840530395507812
0.0015714168548583984
0.0015606880187988281
0.0015676021575927734
0.001504659652709961
0.0014925003051757812
0.0014884471893310547
0.0014934539794921875
0.0014846324920654297
0.0016818046569824219
0.0016744136810302734
0.0016956329345703125
0.0016856193542480469
0.0016701221466064453
0.0018107891082763672
0.0015227794647216797
0.0014955997467041016
0.001558542251586914
0.0014977455139160156
0.0015301704406738281
0.0014927387237548828
0.001508951187133789
0.0015020370483398438
0.0015184879302978516
0.0015513896942138672
0.0015902519226074219
0.0015711784362792969
0.0015685558319091797
0.0015606880187988281
0.0015645027160644531
0.001504659652709961
0.0014948844909667969
0.001486063003540039
0.0014889240264892578
0.0014929771423339844
0.0017201900482177734
0.0016591548919677734
0.0016734600067138672
0.001661062240600586
0.0016863346099853516
0.0017032623291015625
0.001497030258178711
0.0015430450439453125
0.0015172958374023438
0.0014925003051757812
0.001600027084350586
0.0015294551849365234
0.0015079975128173828
0.001491546630859375
0.0015001296997070312
0.0015635490417480469
0.0015873908996582031
0.0015654563903808594
0.0015726089477539062
0.0015680789947509766
0.0016410350799560547
0.0014960765838623047
0.0015108585357666016
0.0015273094177246094
0.0014896392822265625
0.0014803409576416016
0.001588582992553711
0.0015645027160644531
0.0015821456909179688
0.0015645027160644531
0.001585245132446289
0.0015106201171875
0.0016798973083496094
0.0015592575073242188
0.0015559196472167969
0.0015027523040771484
0.0016124248504638672
0.0015921592712402344
0.0015842914581298828
0.0016024112701416016
0.0016238689422607422
0.0016360282897949219
0.0015385150909423828
0.0015044212341308594
0.0014998912811279297
0.0014984607696533203
0.0015707015991210938
0.0014913082122802734
0.0014982223510742188
0.0014889240264892578
0.0014944076538085938
0.0014889240264892578
0.001596689224243164
0.0015714168548583984
0.0015740394592285156
0.001565694808959961
0.0018951892852783203
0.0018229484558105469
0.0016963481903076172
0.0025429725646972656
0.0018057823181152344
0.0017435550689697266
0.0018162727355957031
0.0017871856689453125
0.0018734931945800781
0.0016982555389404297
0.0017249584197998047
0.0017271041870117188
0.00164031982421875
0.0016338825225830078
0.0016701221466064453
0.0016832351684570312
0.0019927024841308594
0.0019655227661132812
0.001954317092895508
0.0019354820251464844
0.001932382583618164
0.001943349838256836
0.0019769668579101562
0.0019464492797851562
0.001965761184692383
0.0019233226776123047
0.002127408981323242
0.0019545555114746094
0.0019388198852539062
0.0019402503967285156
0.0019371509552001953
0.0019769668579101562
0.0019583702087402344
0.0019690990447998047
0.0019497871398925781
0.001954793930053711
0.0019316673278808594
0.0019466876983642578
0.0019421577453613281
0.0019371509552001953
0.0019271373748779297
0.002044200897216797
0.002092123031616211
0.0020046234130859375
0.0020117759704589844
0.0019850730895996094
0.0019567012786865234
0.0019674301147460938
0.0019567012786865234
0.001955747604370117
0.0019371509552001953
0.002050638198852539
0.0020520687103271484
0.0019922256469726562
0.001966238021850586
0.001965045928955078
0.001984834671020508
0.0020055770874023438
0.0019834041595458984
0.0024023056030273438
0.0019567012786865234
0.0019683837890625
0.0019745826721191406
0.0019712448120117188
0.0019867420196533203
0.0019659996032714844
0.001973390579223633
0.001973867416381836
0.001970529556274414
0.001962900161743164
0.002003192901611328
0.001947164535522461
0.0019559860229492188
0.0019502639770507812
0.0020329952239990234
0.001983165740966797
0.0020253658294677734
0.0019600391387939453
0.0019540786743164062
0.0030183792114257812
0.001989603042602539
0.0020220279693603516
0.001957416534423828
0.002010345458984375
0.001947164535522461
0.001934051513671875
0.0019311904907226562
0.0019288063049316406
0.0019233226776123047
0.001936197280883789
0.001926422119140625
0.0019435882568359375
0.0019304752349853516
0.0019502639770507812
0.0019378662109375
0.001920938491821289
0.0019304752349853516
0.0019314289093017578
0.0019271373748779297
0.0019402503967285156
0.002521038055419922
0.002046346664428711
0.0019998550415039062
0.0019533634185791016
0.0020904541015625
0.0019452571868896484
0.0019383430480957031
0.0019381046295166016
0.0019404888153076172
0.0019881725311279297
0.001985311508178711
0.001940011978149414
0.0019378662109375
0.0019295215606689453
0.001962900161743164
0.0019638538360595703
0.0020873546600341797
0.0019516944885253906
0.0019423961639404297
0.0019314289093017578
0.00194549560546875
0.001935720443725586
0.001950979232788086
0.0019352436065673828
0.0019419193267822266
0.0019578933715820312
0.0020279884338378906
0.001979827880859375
0.0019407272338867188
0.0019354820251464844
0.0019712448120117188
0.0019366741180419922
0.0019292831420898438
0.0019190311431884766
0.0019981861114501953
0.0019752979278564453
0.0019392967224121094
0.001958608627319336
0.0019652843475341797
0.0019762516021728516
0.0019769668579101562
0.0019352436065673828
0.0019316673278808594
0.00193023681640625
0.0019371509552001953
0.0019288063049316406
0.001953125
0.0019838809967041016
0.001992940902709961
0.002007007598876953
0.001990079879760742
0.002032756805419922
0.0019800662994384766
0.001953601837158203
0.001943826675415039
0.0019898414611816406
0.0019843578338623047
0.0019485950469970703
0.0019447803497314453
0.0019369125366210938
0.0019948482513427734
0.001961946487426758
0.0030450820922851562
0.002256631851196289
0.002071380615234375
0.0019974708557128906
0.0020859241485595703
0.0018315315246582031
0.0018069744110107422
0.0018169879913330078
0.0018079280853271484
0.0018274784088134766
0.0020089149475097656
0.0019812583923339844
0.0019445419311523438
0.0019376277923583984
0.0020537376403808594
0.0019521713256835938
0.001953601837158203
0.0019443035125732422
0.0019421577453613281
0.0019347667694091797
0.001939535140991211
0.0019752979278564453
0.0019512176513671875
0.001973390579223633
0.0019378662109375
0.0019392967224121094
0.0019428730010986328
0.0019342899322509766
0.0019385814666748047
0.0019290447235107422
0.0019402503967285156
0.0019299983978271484
0.002020120620727539
0.001964569091796875
0.0019719600677490234
0.0019483566284179688
0.0019364356994628906
0.001935720443725586
0.0019330978393554688
0.0020055770874023438
0.001988649368286133
0.0019452571868896484
0.0019528865814208984
0.001934051513671875
0.0019774436950683594
0.0019986629486083984
0.001966238021850586
0.0019392967224121094
0.0019359588623046875
0.0019419193267822266
0.0019512176513671875
0.0019404888153076172
0.001934051513671875
0.00193023681640625
0.0019328594207763672
0.001962900161743164
0.001955270767211914
0.0019676685333251953
0.0019404888153076172
0.0019321441650390625
0.0019538402557373047
0.0019421577453613281
0.0020058155059814453
0.0019426345825195312
0.0021359920501708984
0.001973390579223633
0.001981019973754883
0.0019559860229492188
0.001977682113647461
0.0019378662109375
0.0019383430480957031
0.0019834041595458984
0.0019450187683105469
0.0019364356994628906
0.001961946487426758
0.001976490020751953
0.001949310302734375
0.0019469261169433594
0.001999378204345703
0.0019469261169433594
0.001975536346435547
0.001999378204345703
0.001998424530029297
0.0019412040710449219
0.0019407272338867188
0.0019371509552001953
0.0019397735595703125
0.0019397735595703125
0.0019333362579345703
0.0020170211791992188
0.001958608627319336
0.001966238021850586
0.0020308494567871094
0.0020051002502441406
0.002311229705810547
0.002028226852416992
0.0019724369049072266
0.0019910335540771484
0.0019860267639160156
0.0019507408142089844
0.0019609928131103516
0.0019712448120117188
0.001970052719116211
0.0019850730895996094
0.0019466876983642578
0.0019593238830566406
0.001953601837158203
0.001947641372680664
0.0019567012786865234
0.001947164535522461
0.0019729137420654297
0.0019459724426269531
0.0019643306732177734
0.001961231231689453
0.0020673274993896484
0.001954317092895508
0.0019466876983642578
0.0019481182098388672
0.0019576549530029297
0.0019443035125732422
0.0019445419311523438
0.001947164535522461
0.002001047134399414
0.0019876956939697266
0.001961231231689453
0.001989126205444336
0.0019903182983398438
0.0019428730010986328
0.0019881725311279297
0.0019488334655761719
0.0019457340240478516
0.0019364356994628906
0.0019457340240478516
0.0019381046295166016
0.0019502639770507812
0.001958131790161133
0.0019447803497314453
0.001980304718017578
0.0019450187683105469
0.002012968063354492
0.0019638538360595703
0.002004861831665039
0.0019631385803222656
0.0019426345825195312
0.001961231231689453
0.0019392967224121094
0.0019404888153076172
0.0019583702087402344
0.001959085464477539
0.0020134449005126953
0.0019545555114746094
0.0019562244415283203
0.0019884109497070312
0.0019495487213134766
0.00200653076171875
0.0019521713256835938
0.0019490718841552734
0.0019431114196777344
0.0019598007202148438
0.0019345283508300781
0.0020046234130859375
0.0019443035125732422
0.001989603042602539
0.001956462860107422
0.002024412155151367
0.0019655227661132812
0.0019502639770507812
0.00194549560546875
0.0019457340240478516
0.0019481182098388672
0.0019915103912353516
0.0019474029541015625
0.001984119415283203
0.0019397735595703125
0.0019435882568359375
0.0019528865814208984
0.0019724369049072266
0.0019404888153076172
0.001953125
0.0019450187683105469
0.001947164535522461
0.0019516944885253906
0.0020220279693603516
0.0019903182983398438
0.0019466876983642578
0.0019469261169433594
0.0019576549530029297
0.0019397735595703125
0.0019483566284179688
0.0020036697387695312
0.0019636154174804688
0.0019466876983642578
0.0019578933715820312
0.001981973648071289
0.001955747604370117
0.0020101070404052734
0.0019440650939941406
0.0019414424896240234
0.0019669532775878906
0.0019457340240478516
0.0019457340240478516
0.0019474029541015625
0.002043485641479492
0.001953125
0.001973390579223633
0.0019550323486328125
0.002001047134399414
0.0019516944885253906
0.001956939697265625
0.0019450187683105469
0.00196075439453125
0.001953601837158203
0.001990079879760742
0.001955270767211914
0.002017498016357422
0.0019588470458984375
0.0019960403442382812
0.0019478797912597656
0.0019598007202148438
0.001943349838256836
0.0019466876983642578
0.0019502639770507812
0.0019502639770507812
0.0019352436065673828
0.001954317092895508
0.001959562301635742
0.0019526481628417969
0.0019979476928710938
0.001971721649169922
0.0019731521606445312
0.0019459724426269531
0.0019736289978027344
0.0019426345825195312
0.0019419193267822266
0.0019445419311523438
0.001936197280883789
0.0019898414611816406
0.00194549560546875
0.0019459724426269531
0.0020089149475097656
0.0019843578338623047
0.001958131790161133
0.0020494461059570312
0.0019605159759521484
0.0019462108612060547
0.0019428730010986328
0.0019469261169433594
0.001984119415283203
0.0019497871398925781
0.0019483566284179688
0.002077341079711914
0.0020101070404052734
0.0021677017211914062
0.0020172595977783203
0.0020444393157958984
0.00199127197265625
0.001962900161743164
0.0019948482513427734
0.001999378204345703
0.0019617080688476562
0.0019745826721191406
0.001983165740966797
0.0020766258239746094
0.0020170211791992188
0.002031087875366211
0.0019621849060058594
0.0019507408142089844
0.0019507408142089844
0.001961231231689453
0.001993894577026367
0.0019795894622802734
0.001990079879760742
0.002044677734375
0.0020279884338378906
0.002019643783569336
0.002045869827270508
0.0019903182983398438
0.0020112991333007812
0.001980304718017578
0.0019571781158447266
0.0019555091857910156
0.0019502639770507812
0.0019521713256835938
0.001951456069946289
0.0020034313201904297
0.0020046234130859375
0.0019986629486083984
0.0019791126251220703
0.002485036849975586
0.0020513534545898438
0.0020041465759277344
0.001971721649169922
0.001986980438232422
0.0020012855529785156
0.0019521713256835938
0.001953125
0.001973867416381836
0.001971721649169922
0.0019769668579101562
0.001958608627319336
0.0019638538360595703
0.0019533634185791016
0.002034902572631836
0.001959562301635742
0.0019750595092773438
0.0019559860229492188
0.0019788742065429688
0.0019636154174804688
0.0019519329071044922
0.002040863037109375
0.00251007080078125
0.001986980438232422
0.0020041465759277344
0.0019609928131103516
0.002160310745239258
0.002001047134399414
0.0019788742065429688
0.0019674301147460938
0.0019638538360595703
0.0019979476928710938
0.002023458480834961
0.001990079879760742
0.001956462860107422
0.0019538402557373047
0.001974344253540039
0.0019562244415283203
0.001953125
0.0019540786743164062
0.0019559860229492188
0.0020482540130615234
0.001965045928955078
0.0019562244415283203
0.0020775794982910156
0.0019681453704833984
0.001964092254638672
0.0019674301147460938
0.001961946487426758
0.0019762516021728516
0.001959562301635742
0.002026796340942383
0.0019774436950683594
0.001956939697265625
0.001984119415283203
0.0020079612731933594
0.001979827880859375
0.0019617080688476562
0.0019745826721191406
0.001955747604370117
0.0019488334655761719
0.0019631385803222656
0.001969575881958008
0.0019495487213134766
0.001953125
0.001963376998901367
0.0019683837890625
0.002074003219604492
0.0019834041595458984
0.0019791126251220703
0.0019927024841308594
0.001960277557373047
0.0020945072174072266
0.001459360122680664
0.0015158653259277344
0.0014615058898925781
0.001516103744506836
0.0014545917510986328
0.0016510486602783203
0.0016372203826904297
0.0015990734100341797
0.0020589828491210938
0.001958608627319336
0.0013747215270996094
0.0012056827545166016
0.0011854171752929688
0.0011792182922363281
0.0011718273162841797
0.0011878013610839844
0.0011546611785888672
0.0011973381042480469
0.0011467933654785156
0.0011699199676513672
0.0011479854583740234
0.0011532306671142578
0.0011401176452636719
0.0011641979217529297
0.0011453628540039062
0.0012392997741699219
0.0011565685272216797
0.00116729736328125
0.0012362003326416016
0.0012149810791015625
0.0011470317840576172
0.001188516616821289
0.0011515617370605469
0.0011601448059082031
0.0011386871337890625
0.0011603832244873047
0.0011401176452636719
0.0011572837829589844
0.0011391639709472656
0.0011556148529052734
0.0011584758758544922
0.0011599063873291016
0.0011434555053710938
0.0011510848999023438
0.0011436939239501953
0.0014476776123046875
0.001394033432006836
0.0014119148254394531
0.0013904571533203125
0.00146484375
0.0014166831970214844
0.0015156269073486328
0.001504659652709961
0.001537322998046875
0.0014650821685791016
0.0016968250274658203
0.00147247314453125
0.0014624595642089844
0.0014433860778808594
0.0014584064483642578
0.0014383792877197266
0.0016374588012695312
0.0016112327575683594
0.0016283988952636719
0.0015773773193359375
0.0016033649444580078
0.001455068588256836
0.0014510154724121094
0.0014345645904541016
0.0014460086822509766
0.0014526844024658203
0.0016188621520996094
0.0016019344329833984
0.0016219615936279297
0.0016105175018310547
0.001631021499633789
0.0016040802001953125
0.001550436019897461
0.001573324203491211
0.0015439987182617188
0.0015225410461425781
0.0015513896942138672
0.0014753341674804688
0.0014960765838623047
0.0014607906341552734
0.001495361328125
0.0014812946319580078
0.0016314983367919922
0.001603841781616211
0.0016121864318847656
0.0015935897827148438
0.0016357898712158203
0.0014786720275878906
0.001470804214477539
0.0014507770538330078
0.0014903545379638672
0.001466512680053711
0.0016357898712158203
0.0016045570373535156
0.001622915267944336
0.0016012191772460938
0.001973390579223633
0.0017304420471191406
0.0015609264373779297
0.0015168190002441406
0.0015347003936767578
0.0014858245849609375
0.0017139911651611328
0.0016520023345947266
0.0016779899597167969
0.0016164779663085938
0.0016484260559082031
0.0016133785247802734
0.0015168190002441406
0.0014829635620117188
0.0015015602111816406
0.0015387535095214844
0.0015110969543457031
0.001558542251586914
0.0015876293182373047
0.0015490055084228516
0.0016167163848876953
0.0015537738800048828
0.0015530586242675781
0.001527547836303711
0.0015358924865722656
0.0015246868133544922
0.0015282630920410156
0.002278566360473633
0.002211332321166992
0.0022351741790771484
0.002206087112426758
0.0022249221801757812
0.0020055770874023438
0.001982450485229492
0.001972198486328125
0.0019702911376953125
0.001973390579223633
0.0019745826721191406
0.0019669532775878906
0.002003192901611328
0.001972675323486328
0.001973390579223633
0.0020024776458740234
0.001970529556274414
0.001968860626220703
0.0019693374633789062
0.001981496810913086
0.0019736289978027344
0.0020101070404052734
0.0019779205322265625
0.002007722854614258
0.001979351043701172
0.002114534378051758
0.002007007598876953
0.0020186901092529297
0.0019724369049072266
0.002007722854614258
0.0020127296447753906
0.001981019973754883
0.0019817352294921875
0.0019750595092773438
0.0019669532775878906
0.0020112991333007812
0.0019991397857666016
0.001973867416381836
0.0020012855529785156
0.0019774436950683594
0.0019674301147460938
0.0019788742065429688
0.0019724369049072266
0.001963376998901367
0.0019876956939697266
0.001974821090698242
0.0019893646240234375
0.0019707679748535156
0.0019898414611816406
0.001982450485229492
0.002033710479736328
0.0019898414611816406
0.0019805431365966797
0.0020105838775634766
0.0019788742065429688
0.0019774436950683594
0.002019643783569336
0.0019745826721191406
0.0019664764404296875
0.0019731521606445312
0.0019826889038085938
0.00200653076171875
0.001966714859008789
0.0019712448120117188
0.001973867416381836
0.001965761184692383
0.0019745826721191406
0.0019741058349609375
0.0019714832305908203
0.001966238021850586
0.0019843578338623047
0.0020608901977539062
0.0019948482513427734
0.002053499221801758
0.0019752979278564453
0.002197265625
0.0020580291748046875
0.002031087875366211
0.001995086669921875
0.0019731521606445312
0.001976490020751953
0.001995086669921875
0.0020265579223632812
0.0020151138305664062
0.0020287036895751953
0.0019731521606445312
0.0019762516021728516
0.0019850730895996094
0.0019788742065429688
0.0019707679748535156
0.0019648075103759766
0.001970052719116211
0.001984834671020508
0.0019707679748535156
0.0020482540130615234
0.0020220279693603516
0.00202178955078125
0.002045154571533203
0.0019807815551757812
0.0019752979278564453
0.0020287036895751953
0.0019991397857666016
0.0020194053649902344
0.001984119415283203
0.0019805431365966797
0.0020012855529785156
0.0019948482513427734
0.0020041465759277344
0.0019774436950683594
0.0021507740020751953
0.0020606517791748047
0.002111673355102539
0.0020606517791748047
0.002006053924560547
0.0020151138305664062
0.0019884109497070312
0.0019817352294921875
0.0020301342010498047
0.0020291805267333984
0.0020112991333007812
0.0019974708557128906
0.0020003318786621094
0.001981496810913086
0.0020160675048828125
0.001975536346435547
0.0020308494567871094
0.0019850730895996094
0.001985311508178711
0.002036571502685547
0.0020227432250976562
0.002019166946411133
0.0020754337310791016
0.0021104812622070312
0.0020864009857177734
0.002023458480834961
0.002002716064453125
0.0020406246185302734
0.001989126205444336
0.001987934112548828
0.0020227432250976562
0.002002716064453125
0.0020461082458496094
0.0020368099212646484
0.0020093917846679688
0.00202178955078125
0.0019800662994384766
0.0019855499267578125
0.001974344253540039
0.001990079879760742
0.0019943714141845703
0.0024368762969970703
0.0022373199462890625
0.002064228057861328
0.0020651817321777344
0.0021533966064453125
0.001873016357421875
0.0018608570098876953
0.0018799304962158203
0.0018506050109863281
0.0019364356994628906
0.0020384788513183594
0.0019860267639160156
0.002000093460083008
0.001989603042602539
0.0020613670349121094
0.0020301342010498047
0.0019941329956054688
0.001996278762817383
0.0019850730895996094
0.002047300338745117
0.0020084381103515625
0.001998424530029297
0.0019996166229248047
0.0019812583923339844
0.002035379409790039
0.0020613670349121094
0.002026081085205078
0.0019888877868652344
0.0020110607147216797
0.0019931793212890625
0.001985788345336914
0.0020530223846435547
0.0019931793212890625
0.001980304718017578
0.0019834041595458984
0.002027273178100586
0.0019893646240234375
0.002012014389038086
0.001980304718017578
0.0019736289978027344
0.0019731521606445312
0.0020346641540527344
0.002027750015258789
0.001986980438232422
0.0019919872283935547
0.0019881725311279297
0.0019927024841308594
0.002025127410888672
0.001985788345336914
0.002007722854614258
0.0020236968994140625
0.0020215511322021484
0.00197601318359375
0.001974821090698242
0.0020072460174560547
0.0019829273223876953
0.0019931793212890625
0.00197601318359375
0.0019788742065429688
0.001997709274291992
0.002012491226196289
0.0019969940185546875
0.0019795894622802734
0.0019774436950683594
0.0019681453704833984
0.0020635128021240234
0.002045869827270508
0.0019948482513427734
0.001986980438232422
0.001978158950805664
0.0019998550415039062
0.0020589828491210938
0.0020334720611572266
0.001996755599975586
0.0019838809967041016
0.0021224021911621094
0.0020062923431396484
0.002007007598876953
0.001990079879760742
0.002010822296142578
0.0019838809967041016
0.002001047134399414
0.0020041465759277344
0.0020568370819091797
0.0020148754119873047
0.001985311508178711
0.0019843578338623047
0.002040863037109375
0.0019965171813964844
0.0019805431365966797
0.001985788345336914
0.0019817352294921875
0.0020151138305664062
0.002012968063354492
0.0019969940185546875
0.0020020008087158203
0.001981019973754883
0.001980304718017578
0.0019965171813964844
0.001974821090698242
0.002034425735473633
0.0019943714141845703
0.00199127197265625
0.0019893646240234375
0.002252340316772461
0.0024404525756835938
0.0022504329681396484
0.002048015594482422
0.0021593570709228516
0.0018856525421142578
0.0018455982208251953
0.0018579959869384766
0.0018360614776611328
0.0018341541290283203
0.0020558834075927734
0.002013683319091797
0.0020799636840820312
0.0019981861114501953
0.002026081085205078
0.0020203590393066406
0.0019943714141845703
0.002001047134399414
0.001996278762817383
0.001994609832763672
0.0020101070404052734
0.002046823501586914
0.0019898414611816406
0.002015352249145508
0.001994609832763672
0.002042531967163086
0.001984834671020508
0.0019817352294921875
0.0019791126251220703
0.0019822120666503906
0.002018451690673828
0.002012491226196289
0.001986265182495117
0.0019893646240234375
0.0019788742065429688
0.0020520687103271484
0.0020170211791992188
0.0020372867584228516
0.0019829273223876953
0.0019893646240234375
0.002020597457885742
0.001999378204345703
0.0019826889038085938
0.001982450485229492
0.0019812583923339844
0.002000570297241211
0.002089977264404297
0.0020287036895751953
0.0020334720611572266
0.001977205276489258
0.0019931793212890625
0.002031564712524414
0.001987457275390625
0.0019910335540771484
0.001983165740966797
0.0019922256469726562
0.002023935317993164
0.001986265182495117
0.0020294189453125
0.002007007598876953
0.0020172595977783203
0.001986980438232422
0.00199127197265625
0.001985311508178711
0.0019867420196533203
0.0019898414611816406
0.0019876956939697266
0.002005338668823242
0.0019919872283935547
0.0020422935485839844
0.0020368099212646484
0.0022635459899902344
0.0020427703857421875
0.002019643783569336
0.0020127296447753906
0.0019974708557128906
0.002002239227294922
0.0020046234130859375
0.0019941329956054688
0.002025127410888672
0.0020270347595214844
0.002015352249145508
0.002020120620727539
0.0020475387573242188
0.001995563507080078
0.0019998550415039062
0.001986980438232422
0.002037525177001953
0.0019910335540771484
0.0019888877868652344
0.0019903182983398438
0.0019855499267578125
0.002048015594482422
0.0020139217376708984
0.0020668506622314453
0.0019845962524414062
0.0020394325256347656
0.0020775794982910156
0.0020017623901367188
0.0019867420196533203
0.0020151138305664062
0.002000093460083008
0.001988649368286133
0.0020079612731933594
0.0019910335540771484
0.0020563602447509766
0.001993417739868164
0.0019960403442382812
0.0019981861114501953
0.0019807815551757812
0.0019872188568115234
0.0019876956939697266
0.0019822120666503906
0.0019850730895996094
0.001981019973754883
0.001990079879760742
0.001989126205444336
0.002051115036010742
0.0019948482513427734
0.0019888877868652344
0.001989603042602539
0.002028942108154297
0.0020012855529785156
0.0019960403442382812
0.0019865036010742188
0.001992940902709961
0.001986980438232422
0.0019860267639160156
0.002056121826171875
0.001988649368286133
0.0020067691802978516
0.0019843578338623047
0.0019855499267578125
0.0020265579223632812
0.001985311508178711
0.002016305923461914
0.001985311508178711
0.0019867420196533203
0.0020051002502441406
0.0020325183868408203
0.0020112991333007812
0.0019915103912353516
0.002058267593383789
0.001993417739868164
0.002008676528930664
0.0019898414611816406
0.0020360946655273438
0.0020270347595214844
0.0019998550415039062
0.002018451690673828
0.0019969940185546875
0.002029895782470703
0.001984834671020508
0.001988649368286133
0.0020215511322021484
0.0019888877868652344
0.001984834671020508
0.0019838809967041016
0.001981973648071289
0.0020198822021484375
0.0020227432250976562
0.0020318031311035156
0.002010822296142578
0.001993894577026367
0.001987457275390625
0.0019927024841308594
0.001989603042602539
0.0019998550415039062
0.0019838809967041016
0.0019915103912353516
0.0019948482513427734
0.002034425735473633
0.002006053924560547
0.0020380020141601562
0.002027750015258789
0.002001523971557617
0.001991748809814453
0.001981019973754883
0.0019867420196533203
0.001991748809814453
0.0020008087158203125
0.0020301342010498047
0.001995086669921875
0.0020132064819335938
0.0020072460174560547
0.002022266387939453
0.002013683319091797
0.002020597457885742
0.0019931793212890625
0.0019974708557128906
0.0020639896392822266
0.002012968063354492
0.00199127197265625
0.0019958019256591797
0.001992940902709961
0.001989603042602539
0.0023915767669677734
0.0022139549255371094
0.0020546913146972656
0.0020270347595214844
0.002007722854614258
0.0020165443420410156
0.0020020008087158203
0.001997709274291992
0.001993417739868164
0.0019850730895996094
0.002080202102661133
0.0020554065704345703
0.0020058155059814453
0.002031564712524414
0.001999378204345703
0.002005338668823242
0.0019922256469726562
0.001998424530029297
0.001991748809814453
0.0019960403442382812
0.0020279884338378906
0.00202178955078125
0.002010345458984375
0.001993417739868164
0.0020601749420166016
0.002086162567138672
0.002020597457885742
0.0020270347595214844
0.0020117759704589844
0.0020034313201904297
0.0019943714141845703
0.001999378204345703
0.0019960403442382812
0.001997709274291992
0.0020380020141601562
0.002004384994506836
0.002066373825073242
0.0020110607147216797
0.001994609832763672
0.001991748809814453
0.001995086669921875
0.001982450485229492
0.0019965171813964844
0.002031564712524414
0.0019958019256591797
0.002039670944213867
0.002027750015258789
0.0020530223846435547
0.0020093917846679688
0.002008199691772461
0.002044200897216797
0.0020101070404052734
0.0020148754119873047
0.0020020008087158203
0.0020623207092285156
0.0021142959594726562
0.0021424293518066406
0.002152681350708008
0.0017943382263183594
0.0017902851104736328
0.0017251968383789062
0.0017473697662353516
0.001741647720336914
0.0016658306121826172
0.0016336441040039062
0.0016791820526123047
0.001667022705078125
0.0016622543334960938
0.0012917518615722656
0.0012784004211425781
0.0013010501861572266
0.0012927055358886719
0.001257181167602539
0.0012688636779785156
0.0012810230255126953
0.0013434886932373047
0.0012950897216796875
0.0012879371643066406
0.0012869834899902344
0.0013127326965332031
0.0012888908386230469
0.0013377666473388672
0.0013227462768554688
0.0012655258178710938
0.0012845993041992188
0.0012729167938232422
0.001249074935913086
0.001256704330444336
0.0012943744659423828
0.0012972354888916016
0.0012586116790771484
0.0012836456298828125
0.0012962818145751953
0.0013058185577392578
0.0012669563293457031
0.0012760162353515625
0.001280069351196289
0.0012679100036621094
0.0012488365173339844
0.001302480697631836
0.001302957534790039
0.0012819766998291016
0.0012557506561279297
0.0016083717346191406
0.0015745162963867188
0.0015971660614013672
0.0015492439270019531
0.0015690326690673828
0.001592397689819336
0.0016553401947021484
0.001626729965209961
0.001672983169555664
0.0016276836395263672
0.0017554759979248047
0.001535177230834961
0.001573324203491211
0.0015382766723632812
0.0015132427215576172
0.0014934539794921875
0.0016620159149169922
0.0016295909881591797
0.0016658306121826172
0.0016281604766845703
0.0016641616821289062
0.0015091896057128906
0.0016961097717285156
