0.0029664039611816406
0.001291513442993164
0.0013163089752197266
0.0014426708221435547
0.0013043880462646484
0.0013875961303710938
0.00135040283203125
0.001329183578491211
0.0013277530670166016
0.0013196468353271484
0.00162506103515625
0.0016062259674072266
0.0015735626220703125
0.0015337467193603516
0.0015947818756103516
0.0017306804656982422
0.0017521381378173828
0.0017209053039550781
0.001668691635131836
0.0017132759094238281
0.0017664432525634766
0.001750946044921875
0.001789093017578125
0.0019576549530029297
0.0020465850830078125
0.0017750263214111328
0.001961231231689453
0.0018382072448730469
0.001850128173828125
0.0018389225006103516
0.0017631053924560547
0.0018317699432373047
0.0025484561920166016
0.0018367767333984375
0.0020608901977539062
0.002025604248046875
0.0019352436065673828
0.002004384994506836
0.0017905235290527344
0.0017859935760498047
0.0016298294067382812
0.0015091896057128906
0.0014884471893310547
0.0014750957489013672
0.0015418529510498047
0.0017254352569580078
0.00156402587890625
0.0016186237335205078
0.001613616943359375
0.0015687942504882812
0.001623392105102539
0.0014851093292236328
0.0015685558319091797
0.0015158653259277344
0.001497507095336914
0.0017316341400146484
0.001638650894165039
0.0017321109771728516
0.0018658638000488281
0.0018084049224853516
0.0018527507781982422
0.0018682479858398438
0.0018472671508789062
0.0018799304962158203
0.001943826675415039
0.002106904983520508
0.0017397403717041016
0.0017337799072265625
0.0017778873443603516
0.0018842220306396484
0.0018815994262695312
0.001695394515991211
0.0017185211181640625
0.0017664432525634766
0.0017971992492675781
0.001977682113647461
0.0014102458953857422
0.00125885009765625
0.0013785362243652344
0.001413106918334961
0.0012471675872802734
0.0012345314025878906
0.0012464523315429688
0.001239776611328125
0.0012364387512207031
0.001214742660522461
0.0012476444244384766
0.0012440681457519531
0.0013704299926757812
0.0012483596801757812
0.0012974739074707031
0.0012431144714355469
0.0012865066528320312
0.0012497901916503906
0.0012614727020263672
0.0012433528900146484
0.0014100074768066406
0.0015063285827636719
0.0014750957489013672
0.0013878345489501953
0.0014700889587402344
0.0014522075653076172
0.001630544662475586
0.001422882080078125
0.0015659332275390625
0.001529693603515625
0.0013689994812011719
0.0012857913970947266
0.0012791156768798828
0.0013747215270996094
0.0012254714965820312
0.0017666816711425781
0.0018775463104248047
0.0018820762634277344
0.0020303726196289062
0.0019001960754394531
0.0014338493347167969
0.00141143798828125
0.0019526481628417969
0.0016467571258544922
0.0014317035675048828
0.0014390945434570312
0.0013034343719482422
0.0014276504516601562
0.0015766620635986328
0.0014944076538085938
0.0018994808197021484
0.001440286636352539
0.0014922618865966797
0.0015425682067871094
0.0015435218811035156
0.001424551010131836
0.0015680789947509766
0.0014617443084716797
0.0014219284057617188
0.0014407634735107422
0.001432180404663086
0.001432180404663086
0.0014309883117675781
0.0014095306396484375
0.0013346672058105469
0.0013439655303955078
0.0014023780822753906
0.0012891292572021484
0.0012865066528320312
0.001294851303100586
0.00150299072265625
0.0014350414276123047
0.0016031265258789062
0.0016744136810302734
0.0014257431030273438
0.0018787384033203125
0.006453990936279297
0.0022499561309814453
0.002118349075317383
0.002061605453491211
0.0016698837280273438
0.0015413761138916016
0.0015559196472167969
0.0014204978942871094
0.0015192031860351562
0.0013937950134277344
0.003353595733642578
0.0014157295227050781
0.0015676021575927734
0.001470327377319336
0.0014081001281738281
0.0013659000396728516
0.0016176700592041016
0.002062559127807617
0.0016031265258789062
0.0014176368713378906
0.0022127628326416016
0.0014650821685791016
0.0014760494232177734
0.001642465591430664
0.0016129016876220703
0.0014774799346923828
0.0015101432800292969
0.002317190170288086
0.0014803409576416016
0.001558542251586914
0.002064943313598633
0.0021352767944335938
0.0019412040710449219
0.0019307136535644531
0.0017728805541992188
0.0020513534545898438
0.0017399787902832031
0.0015363693237304688
0.0015597343444824219
0.0014870166778564453
0.0019168853759765625
0.0017287731170654297
0.0017838478088378906
0.001756429672241211
0.00177764892578125
0.002053499221801758
0.0020744800567626953
0.0019145011901855469
0.0020058155059814453
0.0018544197082519531
0.0018668174743652344
0.0018606185913085938
0.0018987655639648438
0.0018801689147949219
0.0018622875213623047
0.0019745826721191406
0.002089262008666992
0.0021331310272216797
0.0020530223846435547
0.0019040107727050781
0.0018529891967773438
0.001865386962890625
0.0018515586853027344
0.0018551349639892578
0.00188446044921875
0.001953601837158203
0.0018856525421142578
0.0021009445190429688
0.001983642578125
0.002046823501586914
0.0018656253814697266
0.0019261837005615234
0.0019600391387939453
0.001975536346435547
0.002034902572631836
0.0019097328186035156
0.0018923282623291016
0.0026748180389404297
0.010092735290527344
0.0029244422912597656
0.0015883445739746094
0.0019335746765136719
0.0017330646514892578
0.0015017986297607422
0.0016012191772460938
0.001977205276489258
0.0017359256744384766
0.0015861988067626953
0.0014352798461914062
0.0015869140625
0.0014450550079345703
0.0014960765838623047
0.0017304420471191406
0.0017681121826171875
0.002028226852416992
0.002114534378051758
0.001752614974975586
0.0017201900482177734
0.0017545223236083984
0.0016064643859863281
0.0014424324035644531
0.0014295578002929688
0.0020012855529785156
0.0017642974853515625
0.0016601085662841797
0.0016360282897949219
0.0014281272888183594
0.0014271736145019531
0.00177001953125
0.001424551010131836
0.0017876625061035156
0.0015189647674560547
0.001420736312866211
0.0014281272888183594
0.0015294551849365234
0.001590728759765625
0.001934051513671875
0.001878499984741211
0.0019614696502685547
0.002376556396484375
0.001981019973754883
0.002005338668823242
0.002281665802001953
0.002025604248046875
0.0022013187408447266
0.0020956993103027344
0.0022346973419189453
0.0022144317626953125
0.0020821094512939453
0.0021467208862304688
0.0021066665649414062
0.001971006393432617
0.0018661022186279297
0.0018641948699951172
0.00191497802734375
0.0018613338470458984
0.002124786376953125
0.0020880699157714844
0.002148866653442383
0.002096414566040039
0.002019643783569336
0.001983165740966797
0.0022406578063964844
0.002009153366088867
0.0019407272338867188
0.001987934112548828
0.0017497539520263672
0.0017125606536865234
0.0018165111541748047
0.0018222332000732422
0.0018668174743652344
0.0019805431365966797
0.0019502639770507812
0.0019352436065673828
0.0019881725311279297
0.0018913745880126953
0.001886129379272461
0.002018451690673828
0.0018799304962158203
0.0018911361694335938
0.0020105838775634766
0.0020322799682617188
0.0020487308502197266
0.0020904541015625
0.002104520797729492
0.0021674633026123047
0.0018465518951416016
0.0016951560974121094
0.0017664432525634766
0.0021185874938964844
0.0018641948699951172
0.0019779205322265625
0.0020704269409179688
0.002177715301513672
0.0018515586853027344
0.0017991065979003906
0.0013279914855957031
0.0012054443359375
0.0012061595916748047
0.0014777183532714844
0.0019497871398925781
0.0015425682067871094
0.0015447139739990234
0.0016667842864990234
0.0021560192108154297
0.0017273426055908203
0.0018405914306640625
0.0017354488372802734
0.0019347667694091797
0.001855611801147461
0.0017058849334716797
0.0017900466918945312
0.0015523433685302734
0.0016074180603027344
0.0019409656524658203
0.0014104843139648438
0.002020597457885742
0.0017211437225341797
0.0013318061828613281
0.001497030258178711
0.0019266605377197266
0.0019502639770507812
0.001873016357421875
0.0015697479248046875
0.0017173290252685547
0.0018532276153564453
0.002071857452392578
0.0024759769439697266
0.0017490386962890625
0.0018203258514404297
0.0018246173858642578
0.0018503665924072266
0.0019969940185546875
0.001607656478881836
0.0014913082122802734
0.0014832019805908203
0.0017635822296142578
0.0014896392822265625
0.001783609390258789
0.0016322135925292969
0.001504659652709961
0.001538991928100586
0.0014324188232421875
0.0016374588012695312
0.0015931129455566406
0.0013730525970458984
0.001346588134765625
0.001440286636352539
0.0014204978942871094
0.0015759468078613281
0.001920461654663086
0.001383066177368164
0.0014505386352539062
0.0013759136199951172
0.0013608932495117188
0.0015947818756103516
0.0014023780822753906
0.001470804214477539
0.0017120838165283203
0.0014717578887939453
0.0015900135040283203
0.001827239990234375
0.0016222000122070312
0.0015501976013183594
0.001544952392578125
0.0014312267303466797
0.0015285015106201172
0.00146484375
0.0013380050659179688
0.0013895034790039062
0.001768350601196289
0.0014348030090332031
0.00177764892578125
0.001634359359741211
0.001775503158569336
0.0040781497955322266
0.0013613700866699219
0.0015120506286621094
0.0021905899047851562
0.0016186237335205078
0.0015270709991455078
0.001355886459350586
0.0015590190887451172
0.001651763916015625
0.0017852783203125
0.0017986297607421875
0.0014574527740478516
0.001613616943359375
0.0015723705291748047
0.0022933483123779297
0.0016162395477294922
0.0015552043914794922
0.0017321109771728516
0.0014493465423583984
0.001455068588256836
0.0016167163848876953
0.0019488334655761719
0.0020041465759277344
0.0025560855865478516
0.0017452239990234375
0.001669168472290039
0.0016415119171142578
0.0015902519226074219
0.0018138885498046875
0.0017161369323730469
0.0015418529510498047
0.0016450881958007812
0.001760244369506836
0.0017163753509521484
0.0018253326416015625
0.0024704933166503906
0.0017192363739013672
0.0014443397521972656
0.0015702247619628906
0.0025947093963623047
0.001775979995727539
0.0014989376068115234
0.0015430450439453125
0.0017421245574951172
0.0016853809356689453
0.001775979995727539
0.001735687255859375
0.0015981197357177734
0.0018284320831298828
0.00144195556640625
0.001554727554321289
0.0015285015106201172
0.0015077590942382812
0.0014507770538330078
0.0019071102142333984
0.0014142990112304688
0.0014202594757080078
0.00141143798828125
0.0014617443084716797
0.0014145374298095703
0.0012454986572265625
0.0012133121490478516
0.0012204647064208984
0.0012142658233642578
0.0011944770812988281
0.001298666000366211
0.0012354850769042969
0.0012023448944091797
0.0014302730560302734
0.0013346672058105469
0.0012211799621582031
0.0011987686157226562
0.0011911392211914062
0.001195669174194336
0.0012898445129394531
0.0014085769653320312
0.0013151168823242188
0.001470327377319336
0.0016644001007080078
0.0015311241149902344
0.0013930797576904297
0.0012176036834716797
0.001352071762084961
0.0012211799621582031
0.0012235641479492188
0.0012094974517822266
0.001523733139038086
0.001354217529296875
0.0012295246124267578
0.001257181167602539
0.0012195110321044922
0.0011875629425048828
0.001203775405883789
0.0011875629425048828
0.001192331314086914
0.001188516616821289
0.0012090206146240234
0.001191854476928711
0.0016477108001708984
0.0016586780548095703
0.0017092227935791016
0.001634359359741211
0.0016243457794189453
0.001661539077758789
0.0014672279357910156
0.0014545917510986328
0.0014514923095703125
0.0014505386352539062
0.0014660358428955078
0.0015380382537841797
0.0015277862548828125
0.0015385150909423828
0.001588582992553711
0.0016429424285888672
0.0014748573303222656
0.0014553070068359375
0.0014905929565429688
0.0014538764953613281
0.0015256404876708984
0.0017616748809814453
0.0022382736206054688
0.002007722854614258
0.00180816650390625
0.0017976760864257812
0.0019233226776123047
0.001924753189086914
0.0020155906677246094
0.0019690990447998047
0.001955270767211914
0.0015969276428222656
0.0016443729400634766
0.001474618911743164
0.0018565654754638672
0.001653432846069336
0.0016911029815673828
0.0016660690307617188
0.0016281604766845703
0.0016245841979980469
0.0016493797302246094
0.001756906509399414
0.002084970474243164
0.0020766258239746094
0.0021076202392578125
0.0021200180053710938
0.0021653175354003906
0.0018999576568603516
0.001894235610961914
0.0018687248229980469
0.0018756389617919922
0.0018701553344726562
0.0018715858459472656
0.0018854141235351562
0.0018622875213623047
0.0018649101257324219
0.0018742084503173828
0.0018687248229980469
0.0018754005432128906
0.0018796920776367188
0.0018804073333740234
0.0019130706787109375
0.0021712779998779297
0.0022287368774414062
0.00225830078125
0.0021588802337646484
0.0019342899322509766
0.0014307498931884766
0.0013942718505859375
0.0014545917510986328
0.0014941692352294922
0.0014925003051757812
0.001617431640625
0.0013988018035888672
0.0012292861938476562
0.0012211799621582031
0.0012049674987792969
0.0011911392211914062
0.0012996196746826172
0.0012650489807128906
0.0013637542724609375
0.0012056827545166016
0.0012600421905517578
0.001230001449584961
0.0013973712921142578
0.0013725757598876953
0.0012137889862060547
0.001207113265991211
0.0012009143829345703
0.0011844635009765625
0.0012159347534179688
0.001184701919555664
0.001180410385131836
0.0011932849884033203
0.001199483871459961
0.0011751651763916016
0.0011754035949707031
0.001184225082397461
0.0011806488037109375
0.0011780261993408203
0.001173257827758789
0.0011703968048095703
0.0011875629425048828
0.0017435550689697266
0.0017671585083007812
0.0017910003662109375
0.0017342567443847656
0.0018811225891113281
0.0018825531005859375
0.0018725395202636719
0.0018677711486816406
0.0019032955169677734
0.0018775463104248047
0.001867055892944336
0.0018668174743652344
0.0018725395202636719
0.0018684864044189453
0.0018961429595947266
0.0018618106842041016
0.0018761157989501953
0.0018627643585205078
0.0018565654754638672
0.001898050308227539
0.0018687248229980469
0.001867532730102539
0.001878976821899414
0.0018792152404785156
0.0019397735595703125
0.001875162124633789
0.0018651485443115234
0.001867055892944336
0.0018649101257324219
0.001871347427368164
0.001873016357421875
0.0018930435180664062
0.0018763542175292969
0.0018658638000488281
0.0018646717071533203
0.0018932819366455078
0.0018775463104248047
0.001913309097290039
0.0018665790557861328
0.00186920166015625
0.0018732547760009766
0.0018646717071533203
0.0018646717071533203
0.0018668174743652344
0.0018703937530517578
0.0019168853759765625
0.0018723011016845703
0.0019068717956542969
0.0018775463104248047
0.0018689632415771484
0.001971721649169922
0.0019011497497558594
0.0018763542175292969
0.0018720626831054688
0.001898050308227539
0.0018715858459472656
0.0018761157989501953
0.0018665790557861328
0.0018873214721679688
0.0019137859344482422
0.0019063949584960938
0.0019016265869140625
0.001880645751953125
0.0018744468688964844
0.0019257068634033203
0.0019218921661376953
0.0018742084503173828
0.0018756389617919922
0.0018644332885742188
0.0019147396087646484
0.0018846988677978516
0.0019037723541259766
0.00186920166015625
0.0018761157989501953
0.0018894672393798828
0.0018742084503173828
0.0018832683563232422
0.001880645751953125
0.0018644332885742188
0.0018682479858398438
0.0018770694732666016
0.001917123794555664
0.0018680095672607422
0.0018906593322753906
0.0018994808197021484
0.0018725395202636719
0.0018610954284667969
0.0018918514251708984
0.0018689632415771484
0.0018665790557861328
0.0018689632415771484
0.0018906593322753906
0.0018873214721679688
0.0019235610961914062
0.0019147396087646484
0.0018684864044189453
0.0018742084503173828
0.0018734931945800781
0.001867532730102539
0.0018663406372070312
0.0018668174743652344
0.0019865036010742188
0.002056598663330078
0.0019216537475585938
0.0019159317016601562
0.0019047260284423828
0.0019156932830810547
0.001916646957397461
0.0018787384033203125
0.0019099712371826172
0.0018770694732666016
0.0018770694732666016
0.0019066333770751953
0.0018939971923828125
0.0018820762634277344
0.0018818378448486328
0.0018818378448486328
0.0018908977508544922
0.0019366741180419922
0.0018963813781738281
0.0018837451934814453
0.001924276351928711
0.0019190311431884766
0.0019230842590332031
0.0019001960754394531
0.001972675323486328
0.002003908157348633
0.0019297599792480469
0.001936197280883789
0.0019152164459228516
0.0018825531005859375
0.0019047260284423828
0.0018794536590576172
0.001895904541015625
0.0019807815551757812
0.0019369125366210938
0.0020711421966552734
0.0019419193267822266
0.0019173622131347656
0.0018954277038574219
0.0019087791442871094
0.0019130706787109375
0.0019021034240722656
0.0019145011901855469
0.0018870830535888672
0.0018849372863769531
0.0018737316131591797
0.001894235610961914
0.001924753189086914
0.0018720626831054688
0.0018985271453857422
0.0019228458404541016
0.0019021034240722656
0.0019121170043945312
0.0018799304962158203
0.0018773078918457031
0.0018792152404785156
0.0018754005432128906
0.0019068717956542969
0.001880645751953125
0.001909494400024414
0.0018947124481201172
0.0019268989562988281
0.0019311904907226562
0.0018966197967529297
0.0018863677978515625
0.0018801689147949219
0.0018818378448486328
0.0018818378448486328
0.0019140243530273438
0.0018825531005859375
0.0018749237060546875
0.0018768310546875
0.0019114017486572266
0.0019421577453613281
0.001888275146484375
0.0018756389617919922
0.0018777847290039062
0.0019328594207763672
0.001886606216430664
0.0018885135650634766
0.00189971923828125
0.0018799304962158203
0.001880645751953125
0.001882314682006836
0.0019078254699707031
0.001894235610961914
0.0018939971923828125
0.0018749237060546875
0.0018813610076904297
0.0018863677978515625
0.0018815994262695312
0.0018768310546875
0.0018770694732666016
0.0018777847290039062
0.0019087791442871094
0.0019505023956298828
0.0018868446350097656
0.0019071102142333984
0.0018796920776367188
0.0019066333770751953
0.0018792152404785156
0.0018720626831054688
0.001880645751953125
0.0018734931945800781
0.0018758773803710938
0.0018754005432128906
0.0019338130950927734
0.0018951892852783203
0.0019156932830810547
0.0019059181213378906
0.00196075439453125
0.0018870830535888672
0.0018877983093261719
0.001882314682006836
0.0018734931945800781
0.0018842220306396484
0.0018811225891113281
0.0018801689147949219
0.0019173622131347656
0.001890420913696289
0.0019097328186035156
0.0024170875549316406
0.00213623046875
0.0019588470458984375
0.0019545555114746094
0.002028942108154297
0.0017790794372558594
0.0017609596252441406
0.0017523765563964844
0.0017628669738769531
0.0017549991607666016
0.0019376277923583984
0.0019066333770751953
0.0018990039825439453
0.0018873214721679688
0.0018818378448486328
0.0019130706787109375
0.0018873214721679688
0.0018830299377441406
0.0018842220306396484
0.0019419193267822266
0.0019021034240722656
0.0019068717956542969
0.0018880367279052734
0.0018842220306396484
0.0018777847290039062
0.0019173622131347656
0.001878499984741211
0.0018815994262695312
0.0018863677978515625
0.0018804073333740234
0.001916646957397461
0.001903533935546875
0.0018939971923828125
0.0019009113311767578
0.001875162124633789
0.0019228458404541016
0.0018782615661621094
0.0018773078918457031
0.001878976821899414
0.0019137859344482422
0.0019483566284179688
0.0019016265869140625
0.0019159317016601562
0.0019044876098632812
0.0018990039825439453
0.0018849372863769531
0.0018875598907470703
0.0018839836120605469
0.0018818378448486328
0.0018970966339111328
0.0018820762634277344
0.001926422119140625
0.0018839836120605469
0.0018930435180664062
0.0018990039825439453
0.001895904541015625
0.0018999576568603516
0.0018849372863769531
0.0018818378448486328
0.0018815994262695312
0.0018849372863769531
0.0018825531005859375
0.0018815994262695312
0.0018837451934814453
0.0018820762634277344
0.0019016265869140625
0.0018818378448486328
0.0019156932830810547
0.0018832683563232422
0.001878499984741211
0.0018849372863769531
0.0018818378448486328
0.001981019973754883
0.0018992424011230469
0.001888275146484375
0.0018846988677978516
0.0018837451934814453
0.001950979232788086
0.00189208984375
0.0019421577453613281
0.0018990039825439453
0.0018894672393798828
0.0018808841705322266
0.0019028186798095703
0.0018832683563232422
0.0018794536590576172
0.0018851757049560547
0.0018815994262695312
0.0018875598907470703
0.0018835067749023438
0.0019054412841796875
0.0018787384033203125
0.0018987655639648438
0.0018908977508544922
0.0018780231475830078
0.0018832683563232422
0.0018794536590576172
0.0018846988677978516
0.0018839836120605469
0.0018780231475830078
0.0018928050994873047
0.001967191696166992
0.0019273757934570312
0.0018928050994873047
0.0018961429595947266
0.001880645751953125
0.0018737316131591797
0.0018780231475830078
0.00188446044921875
0.001901865005493164
0.0018880367279052734
0.0018870830535888672
0.0018908977508544922
0.001949310302734375
0.0018894672393798828
0.0018968582153320312
0.001886606216430664
0.0018849372863769531
0.001924753189086914
0.001882314682006836
0.001880645751953125
0.001882314682006836
0.0018863677978515625
0.0019872188568115234
0.001935720443725586
0.0020418167114257812
0.0019104480743408203
0.0019159317016601562
0.0018968582153320312
0.001905202865600586
0.0019063949584960938
0.0018894672393798828
0.0018849372863769531
0.0018870830535888672
0.0019016265869140625
0.0018925666809082031
0.0019130706787109375
0.0018856525421142578
0.0018765926361083984
0.0019428730010986328
0.0019328594207763672
0.0018985271453857422
0.0019268989562988281
0.0018916130065917969
0.001943349838256836
0.0018951892852783203
0.0019078254699707031
0.0018990039825439453
0.001888275146484375
0.0018815994262695312
0.0018901824951171875
0.0018851757049560547
0.0018815994262695312
0.0019173622131347656
0.0018939971923828125
0.0019216537475585938
0.0018906593322753906
0.0019073486328125
0.0018994808197021484
0.0019125938415527344
0.0018999576568603516
0.0018873214721679688
0.001886129379272461
0.0019006729125976562
0.002048492431640625
0.0019507408142089844
0.0019173622131347656
0.001893758773803711
0.0019004344940185547
0.0019524097442626953
0.0019330978393554688
0.0019001960754394531
0.0018930435180664062
0.001895904541015625
0.001878976821899414
0.0018928050994873047
0.00188446044921875
0.0018815994262695312
0.0018835067749023438
0.0018837451934814453
0.0018973350524902344
0.0019106864929199219
0.0019147396087646484
0.0018830299377441406
0.0019032955169677734
0.0019304752349853516
0.0019335746765136719
0.001886606216430664
0.0018856525421142578
0.0018885135650634766
0.0018856525421142578
0.0018911361694335938
0.0019190311431884766
0.0019516944885253906
0.0018928050994873047
0.0018939971923828125
0.0019159317016601562
0.0018849372863769531
0.001882791519165039
0.001909017562866211
0.0019304752349853516
0.0019273757934570312
0.0019009113311767578
0.0019173622131347656
0.0019147396087646484
0.0019273757934570312
0.001501321792602539
0.0014934539794921875
0.0014681816101074219
0.001468658447265625
0.0014960765838623047
0.0015683174133300781
0.0015499591827392578
0.0015416145324707031
0.0015382766723632812
0.0015687942504882812
0.0016222000122070312
0.0014772415161132812
0.0014674663543701172
0.0014698505401611328
0.001463174819946289
0.0015311241149902344
0.0015499591827392578
0.0015444755554199219
0.001538991928100586
0.0015397071838378906
0.0016171932220458984
0.001499176025390625
0.0015223026275634766
0.0014920234680175781
0.0014700889587402344
0.0014667510986328125
0.0017194747924804688
0.0015745162963867188
0.0015637874603271484
0.0015642642974853516
0.0015482902526855469
0.0014941692352294922
0.0015125274658203125
0.0014917850494384766
0.001483917236328125
0.0014994144439697266
0.0014798641204833984
0.0014684200286865234
0.0014710426330566406
0.0014696121215820312
0.0014672279357910156
0.0015566349029541016
0.0015683174133300781
0.0015532970428466797
0.0016787052154541016
0.0017426013946533203
0.0015871524810791016
0.001573324203491211
0.0015599727630615234
0.001552581787109375
0.0015654563903808594
0.0016181468963623047
0.0015704631805419922
0.001596689224243164
0.0015535354614257812
0.0016252994537353516
0.0016684532165527344
0.0015022754669189453
0.001481771469116211
0.0014889240264892578
0.0014777183532714844
0.0015506744384765625
0.001569509506225586
0.0015497207641601562
0.001547098159790039
0.0015878677368164062
0.0015594959259033203
0.0015411376953125
0.0015535354614257812
0.0015041828155517578
0.0014896392822265625
0.0014719963073730469
0.0014820098876953125
0.0014646053314208984
0.0015416145324707031
0.0014863014221191406
0.0014891624450683594
0.0018916130065917969
0.0017969608306884766
0.0016033649444580078
0.001566171646118164
0.0015501976013183594
0.0016210079193115234
0.0017654895782470703
0.0015151500701904297
0.001504659652709961
0.0014920234680175781
0.0015552043914794922
0.0016012191772460938
0.001550912857055664
0.0015797615051269531
0.001585245132446289
0.0015528202056884766
0.0014901161193847656
0.00148773193359375
0.0014791488647460938
0.0014753341674804688
0.0014715194702148438
0.0014750957489013672
0.0014667510986328125
0.0014722347259521484
0.001486063003540039
0.0014896392822265625
0.0015614032745361328
0.0015556812286376953
0.0015938282012939453
0.0015747547149658203
0.0015568733215332031
0.0016317367553710938
0.001497030258178711
0.0014834403991699219
0.0014781951904296875
0.0014717578887939453
0.0015163421630859375
0.0016210079193115234
0.0015599727630615234
0.0015501976013183594
0.0015532970428466797
0.0015647411346435547
0.0014851093292236328
0.0014772415161132812
0.0014684200286865234
0.0014727115631103516
0.0015332698822021484
0.0016894340515136719
0.0016734600067138672
0.001636505126953125
0.0016391277313232422
0.001714468002319336
0.001916646957397461
0.0019032955169677734
0.0018990039825439453
0.0019028186798095703
0.001894235610961914
0.0018949508666992188
0.001909017562866211
0.0019378662109375
0.0019154548645019531
0.0018999576568603516
0.001898050308227539
0.0018973350524902344
0.0018954277038574219
0.001893758773803711
0.0019145011901855469
0.0019004344940185547
0.0019021034240722656
0.0019307136535644531
0.0019152164459228516
0.0019183158874511719
0.0019330978393554688
0.0019497871398925781
0.0019190311431884766
0.0019364356994628906
0.0019183158874511719
0.0019297599792480469
0.0019071102142333984
0.0019030570983886719
0.0020110607147216797
0.0019652843475341797
0.0020384788513183594
0.0020139217376708984
0.0019299983978271484
0.0019996166229248047
0.0019257068634033203
0.0019409656524658203
0.002290010452270508
0.0021631717681884766
0.0019731521606445312
0.001960277557373047
0.001903533935546875
0.0018076896667480469
0.0018236637115478516
0.0017666816711425781
0.0018444061279296875
0.0019483566284179688
0.001918792724609375
0.0019109249114990234
0.0019047260284423828
0.0018968582153320312
0.0019185543060302734
0.0018994808197021484
0.0019421577453613281
0.0019118785858154297
0.0018973350524902344
0.0020673274993896484
0.0019249916076660156
0.0019464492797851562
0.0019097328186035156
0.0019044876098632812
0.0018982887268066406
0.0019085407257080078
0.0019047260284423828
0.0019268989562988281
0.0019185543060302734
0.0019240379333496094
0.0019130706787109375
0.0019352436065673828
0.0018961429595947266
0.0019135475158691406
0.0018987655639648438
0.001901865005493164
0.0018963813781738281
0.0019032955169677734
0.0021364688873291016
0.0019469261169433594
0.001955270767211914
0.0019030570983886719
0.001913309097290039
0.0020744800567626953
0.0019583702087402344
0.001982450485229492
0.0019145011901855469
0.001917123794555664
0.0018970966339111328
0.0019021034240722656
0.0019304752349853516
0.0019199848175048828
0.0019383430480957031
0.0019164085388183594
0.0019092559814453125
0.0019073486328125
0.0019116401672363281
0.0019021034240722656
0.0019028186798095703
0.0019011497497558594
0.0019025802612304688
0.0019290447235107422
0.0019130706787109375
0.0019197463989257812
0.0018982887268066406
0.0019040107727050781
0.0019240379333496094
0.001901388168334961
0.002057313919067383
0.0019345283508300781
0.0019059181213378906
0.0019478797912597656
0.0019407272338867188
0.0019245147705078125
0.0019137859344482422
0.001909494400024414
0.00189971923828125
0.001903533935546875
0.0018923282623291016
0.00189208984375
0.0019071102142333984
0.0018992424011230469
0.0019006729125976562
0.0019054412841796875
0.002040863037109375
0.0019304752349853516
0.0019156932830810547
0.0019102096557617188
0.00222015380859375
0.0019702911376953125
0.001961946487426758
0.001958131790161133
0.0019791126251220703
0.001983642578125
0.001974821090698242
0.0019497871398925781
0.001967906951904297
0.0019502639770507812
0.0019550323486328125
0.0019774436950683594
0.0019240379333496094
0.0019168853759765625
0.0019140243530273438
0.0019178390502929688
0.0019073486328125
0.0019347667694091797
0.0019142627716064453
0.001928567886352539
0.0019125938415527344
0.0019314289093017578
0.0019164085388183594
0.0019412040710449219
0.001950979232788086
0.002042531967163086
0.0019283294677734375
0.00191497802734375
0.0019252300262451172
0.0019202232360839844
0.001917123794555664
0.0019266605377197266
0.0019223690032958984
0.0019643306732177734
0.0019125938415527344
0.0019164085388183594
0.0019073486328125
0.0019314289093017578
0.0019063949584960938
0.0019087791442871094
0.0019426345825195312
0.0019519329071044922
0.0019435882568359375
0.0019216537475585938
0.00194549560546875
0.0019099712371826172
0.0019202232360839844
0.001905679702758789
0.001901865005493164
0.0019240379333496094
0.0019078254699707031
0.0019197463989257812
0.0019078254699707031
0.0019044876098632812
0.001943349838256836
0.0019235610961914062
0.0019919872283935547
0.0019078254699707031
0.0019044876098632812
0.0019075870513916016
0.0019040107727050781
0.0019333362579345703
0.0019040107727050781
0.0019037723541259766
0.001903533935546875
0.0019104480743408203
0.0019459724426269531
0.0019233226776123047
0.001905202865600586
0.0019240379333496094
0.0019083023071289062
0.005669832229614258
0.0021567344665527344
0.0019974708557128906
0.0019707679748535156
0.0019440650939941406
0.0019817352294921875
0.001984834671020508
0.0019371509552001953
0.0019533634185791016
0.0019218921661376953
0.0019278526306152344
0.0019347667694091797
0.0019218921661376953
0.0019249916076660156
0.001955270767211914
0.0019335746765136719
0.001920938491821289
0.0019342899322509766
0.0019497871398925781
0.0019481182098388672
0.0019195079803466797
0.0019335746765136719
0.0019154548645019531
0.0019185543060302734
0.0019156932830810547
0.0019185543060302734
0.0019245147705078125
0.001920938491821289
0.0019104480743408203
0.001955270767211914
0.0020105838775634766
0.0019347667694091797
0.0019211769104003906
0.0019195079803466797
0.0019326210021972656
0.001949310302734375
0.0019617080688476562
0.0019173622131347656
0.0019130706787109375
0.001911163330078125
0.0019304752349853516
0.0019185543060302734
0.0019457340240478516
0.0019252300262451172
0.001993417739868164
0.0019288063049316406
0.001913309097290039
0.0019192695617675781
0.0019135475158691406
0.001905202865600586
0.0019199848175048828
0.0019130706787109375
0.001943826675415039
0.0019311904907226562
0.001926422119140625
0.001918792724609375
0.0019109249114990234
0.0019230842590332031
0.0019118785858154297
0.0019249916076660156
0.0019304752349853516
0.0019173622131347656
0.0019464492797851562
0.0019333362579345703
0.0019369125366210938
0.0019385814666748047
0.001905202865600586
0.001941680908203125
0.001912832260131836
0.0019047260284423828
0.0019257068634033203
0.001940011978149414
0.0019197463989257812
0.0019237995147705078
0.0019118785858154297
0.0019407272338867188
0.0019352436065673828
0.0019161701202392578
0.0019147396087646484
0.0019483566284179688
0.0019147396087646484
0.0019114017486572266
0.001947164535522461
0.0019254684448242188
0.0019147396087646484
0.001955270767211914
0.0019404888153076172
0.0019221305847167969
0.0019888877868652344
0.0019192695617675781
0.0019407272338867188
0.0020084381103515625
0.0020380020141601562
0.001967191696166992
0.001961946487426758
0.001934051513671875
0.0019359588623046875
0.0019447803497314453
0.001920938491821289
0.001955747604370117
0.0019145011901855469
0.0019185543060302734
0.0019359588623046875
0.001958131790161133
0.0019345283508300781
0.0019183158874511719
0.0019228458404541016
0.001922607421875
0.0019216537475585938
0.0019352436065673828
0.0019428730010986328
0.0019464492797851562
0.0019474029541015625
0.001954793930053711
0.00197601318359375
0.001973867416381836
0.001953601837158203
0.001973390579223633
0.0019288063049316406
0.0019636154174804688
0.0019507408142089844
0.0019452571868896484
0.0019423961639404297
0.0019216537475585938
0.001947164535522461
0.0019609928131103516
0.0019307136535644531
0.001928091049194336
0.0019233226776123047
0.001918792724609375
0.001963376998901367
0.0019600391387939453
0.0019674301147460938
0.001987934112548828
0.0021708011627197266
0.002006053924560547
0.0022308826446533203
0.0021185874938964844
0.0019659996032714844
0.001956462860107422
0.001956462860107422
0.001935720443725586
0.0019307136535644531
0.0019328594207763672
0.0019383430480957031
0.0019674301147460938
0.0019216537475585938
0.0019223690032958984
0.0019237995147705078
0.0019118785858154297
0.0019795894622802734
0.0019600391387939453
0.0019388198852539062
0.001957416534423828
0.0022003650665283203
0.002032756805419922
0.0019683837890625
0.001973390579223633
0.0019254684448242188
0.0019228458404541016
0.0019221305847167969
0.0019369125366210938
0.0019202232360839844
0.0019311904907226562
0.0019218921661376953
0.0019147396087646484
0.0019407272338867188
0.0019249916076660156
0.0019478797912597656
0.0019445419311523438
0.0019307136535644531
0.0019366741180419922
0.0019252300262451172
0.0019168853759765625
0.0019533634185791016
0.002007007598876953
0.001986265182495117
0.0019297599792480469
0.0019519329071044922
0.0019443035125732422
0.0020220279693603516
0.001974344253540039
0.0019338130950927734
0.0019359588623046875
0.001998424530029297
0.001967906951904297
0.0020036697387695312
0.001943349838256836
0.001975536346435547
0.001943349838256836
0.0019240379333496094
0.0019478797912597656
0.0019335746765136719
0.001920461654663086
0.0019252300262451172
0.0019261837005615234
0.0019202232360839844
0.0019576549530029297
0.001962423324584961
0.0019397735595703125
0.0019402503967285156
0.0019712448120117188
0.001956939697265625
0.0019452571868896484
0.0019168853759765625
0.0019218921661376953
0.0019652843475341797
0.0019290447235107422
0.0019249916076660156
0.0019245147705078125
0.0019404888153076172
0.0022034645080566406
0.0023636817932128906
0.0021626949310302734
0.002053976058959961
0.00196075439453125
0.0019979476928710938
0.001953125
0.001965761184692383
0.0019388198852539062
0.0019321441650390625
0.0019326210021972656
0.0019409656524658203
0.0019347667694091797
0.0020263195037841797
0.0019450187683105469
0.0019376277923583984
0.0019237995147705078
0.001953125
0.0019278526306152344
0.0019237995147705078
0.0019180774688720703
0.001922607421875
0.0019507408142089844
0.0019261837005615234
0.002002716064453125
0.001970052719116211
0.0019571781158447266
0.0019958019256591797
0.0019299983978271484
0.001987457275390625
0.0019347667694091797
0.0019960403442382812
0.0019459724426269531
0.001932382583618164
0.0019316673278808594
0.0019237995147705078
0.001957416534423828
0.0019423961639404297
0.0019342899322509766
0.001920938491821289
0.0019237995147705078
0.0019102096557617188
0.0019235610961914062
0.001963376998901367
0.0019199848175048828
0.0019092559814453125
0.0019159317016601562
0.0019524097442626953
0.0019299983978271484
0.001957416534423828
0.0019216537475585938
0.0019333362579345703
0.0019316673278808594
0.0019161701202392578
0.0019292831420898438
0.001913309097290039
0.001924276351928711
0.0019123554229736328
0.0019211769104003906
0.001977205276489258
0.002018451690673828
0.0019845962524414062
0.0019307136535644531
0.0019292831420898438
0.0019409656524658203
0.001922607421875
0.0019252300262451172
0.0019414424896240234
0.0019364356994628906
0.0019588470458984375
0.0019412040710449219
0.0019273757934570312
0.0019528865814208984
0.00191497802734375
0.001955270767211914
0.0019335746765136719
0.0019278526306152344
0.0019173622131347656
0.0019326210021972656
0.001958131790161133
0.0019338130950927734
0.0019488334655761719
0.0019350051879882812
0.0019555091857910156
0.0019218921661376953
0.0019588470458984375
0.0019276142120361328
0.0019137859344482422
0.0019228458404541016
0.0020341873168945312
0.0019893646240234375
0.0019385814666748047
0.0019295215606689453
0.0019409656524658203
0.0019428730010986328
0.0020105838775634766
0.0019297599792480469
0.001924276351928711
0.0019295215606689453
0.001943349838256836
0.001947641372680664
0.0019352436065673828
0.0019371509552001953
0.0019276142120361328
0.0019423961639404297
0.001935720443725586
0.0016477108001708984
0.0015845298767089844
0.0015823841094970703
0.0015711784362792969
0.0015788078308105469
0.001646280288696289
0.0015099048614501953
0.0014982223510742188
0.0014965534210205078
0.0014925003051757812
0.0015192031860351562
0.001592397689819336
0.00164031982421875
0.0016694068908691406
0.0015952587127685547
0.0016644001007080078
0.0015418529510498047
0.0015025138854980469
0.0015244483947753906
0.001499176025390625
0.0015764236450195312
0.0015873908996582031
0.001608133316040039
0.0015926361083984375
0.00157928466796875
0.0015876293182373047
0.0015115737915039062
0.0014984607696533203
0.0015037059783935547
0.0014960765838623047
0.0014948844909667969
0.0014994144439697266
0.0014922618865966797
0.0014917850494384766
0.0015289783477783203
0.0015256404876708984
0.0015876293182373047
0.001573324203491211
0.001580953598022461
0.0015709400177001953
0.0016057491302490234
0.0016438961029052734
0.0015637874603271484
0.0015380382537841797
0.0015110969543457031
0.0015194416046142578
0.0015404224395751953
0.0015842914581298828
0.0015795230865478516
0.0015718936920166016
0.001577138900756836
0.0016474723815917969
0.0015063285827636719
0.0014967918395996094
0.0014984607696533203
0.0014979839324951172
0.0015649795532226562
0.0016112327575683594
0.0016179084777832031
0.0015680789947509766
0.0015790462493896484
0.0015616416931152344
0.0015110969543457031
0.0014972686767578125
0.0014886856079101562
0.0014989376068115234
0.0015225410461425781
0.0017862319946289062
0.001588582992553711
0.0015630722045898438
0.0015082359313964844
0.0015628337860107422
0.0016145706176757812
0.0016226768493652344
0.0016028881072998047
0.0015807151794433594
0.002839803695678711
0.0017020702362060547
0.0015044212341308594
0.0016505718231201172
0.0014827251434326172
0.0015156269073486328
0.001743316650390625
0.001741647720336914
0.0016450881958007812
0.0016286373138427734
0.0016269683837890625
0.0015981197357177734
0.0014770030975341797
0.001462697982788086
0.0014605522155761719
0.001470804214477539
0.0015146732330322266
0.0016105175018310547
0.0015795230865478516
0.001585245132446289
0.0015704631805419922
0.0016245841979980469
0.001580953598022461
0.0015866756439208984
0.001626729965209961
0.0016241073608398438
0.0016887187957763672
0.0016589164733886719
0.0016214847564697266
0.0015909671783447266
0.0015735626220703125
0.001577138900756836
0.0015177726745605469
0.00150299072265625
0.0014944076538085938
0.001542806625366211
0.0015056133270263672
0.0017018318176269531
0.0017070770263671875
0.0017080307006835938
0.0016655921936035156
0.0016632080078125
0.0015385150909423828
0.0015010833740234375
0.0014896392822265625
0.001489877700805664
0.0014927387237548828
0.0016269683837890625
0.0016810894012451172
0.001735687255859375
0.0016810894012451172
0.001676321029663086
0.001856088638305664
0.0020177364349365234
0.0019445419311523438
0.0019428730010986328
0.0019390583038330078
0.002022981643676758
0.0019505023956298828
0.0019388198852539062
0.0019652843475341797
0.0019488334655761719
0.0020096302032470703
0.0019507408142089844
0.0019366741180419922
0.00193023681640625
0.001940011978149414
0.0019750595092773438
0.0019447803497314453
0.002045154571533203
0.00208282470703125
0.0020165443420410156
0.001974344253540039
0.0021948814392089844
0.0021021366119384766
0.00209808349609375
0.002033710479736328
0.001956939697265625
0.0019443035125732422
0.0019490718841552734
0.0019421577453613281
0.0019321441650390625
0.0019791126251220703
0.0020117759704589844
0.001960277557373047
0.00197601318359375
0.001934051513671875
0.002025127410888672
0.0019807815551757812
0.001939535140991211
0.0019316673278808594
0.001981019973754883
0.002003192901611328
0.0020263195037841797
0.0019698143005371094
0.0019540786743164062
0.0019888877868652344
0.0019369125366210938
0.0019435882568359375
0.0019443035125732422
0.0019435882568359375
0.0019307136535644531
0.001972198486328125
0.0019690990447998047
0.0019521713256835938
0.001977205276489258
0.0019450187683105469
0.0019593238830566406
0.001997232437133789
0.0019750595092773438
0.0019648075103759766
0.0019481182098388672
0.0019822120666503906
0.0019445419311523438
0.0019474029541015625
0.0019412040710449219
0.0019392967224121094
0.0019965171813964844
0.0019488334655761719
0.0019724369049072266
0.001939535140991211
0.0019397735595703125
0.0019352436065673828
0.0019345283508300781
0.001967191696166992
0.0019643306732177734
0.001964569091796875
0.0019459724426269531
0.0019364356994628906
0.002045154571533203
0.002009868621826172
0.0019707679748535156
0.0019464492797851562
0.001971006393432617
0.0019428730010986328
0.0019478797912597656
0.0019392967224121094
0.0019383430480957031
0.0019314289093017578
0.0019330978393554688
0.0019466876983642578
0.0019948482513427734
0.002015829086303711
0.0019488334655761719
0.001943349838256836
0.0019481182098388672
0.001943349838256836
0.001985311508178711
0.0019445419311523438
0.0019390583038330078
0.0019528865814208984
0.0019559860229492188
0.001955747604370117
0.0019652843475341797
0.0019457340240478516
0.0019729137420654297
0.0019371509552001953
0.0019571781158447266
0.001943826675415039
0.0019445419311523438
0.0019783973693847656
0.0019447803497314453
0.0019407272338867188
0.0019378662109375
0.001950979232788086
0.001967906951904297
0.0019385814666748047
0.0019423961639404297
0.0019333362579345703
0.0019383430480957031
0.001972675323486328
0.0019526481628417969
0.0019369125366210938
0.001934051513671875
0.0019326210021972656
0.002014636993408203
0.002002239227294922
0.0020623207092285156
0.0019903182983398438
0.001964092254638672
0.0019466876983642578
0.0019559860229492188
0.0019426345825195312
0.0019447803497314453
0.0019414424896240234
0.0019407272338867188
0.0019958019256591797
0.0019466876983642578
0.001963376998901367
0.002262592315673828
0.002244710922241211
0.0020418167114257812
0.0018956661224365234
0.0018248558044433594
0.0018565654754638672
0.0018134117126464844
0.0018236637115478516
0.0019826889038085938
0.001994609832763672
0.0020432472229003906
0.001993894577026367
0.0019521713256835938
0.0019617080688476562
0.0019497871398925781
0.0019505023956298828
0.0019452571868896484
0.0019392967224121094
0.0020127296447753906
0.0019588470458984375
0.0019986629486083984
0.0019588470458984375
0.0019800662994384766
0.001951456069946289
0.0019392967224121094
0.0019423961639404297
0.0019369125366210938
0.0019428730010986328
0.001950979232788086
0.001981973648071289
0.0019464492797851562
0.001943349838256836
0.001976490020751953
0.0019636154174804688
0.0019636154174804688
0.0019407272338867188
0.0019409656524658203
0.0019426345825195312
0.0020322799682617188
0.0019981861114501953
0.001983642578125
0.0019567012786865234
0.0019483566284179688
0.0019736289978027344
0.0019736289978027344
0.001964569091796875
0.0019412040710449219
0.0019412040710449219
0.0020093917846679688
0.0019567012786865234
0.0019474029541015625
0.001992940902709961
0.002669811248779297
0.0021262168884277344
0.0020194053649902344
0.0019974708557128906
0.0019867420196533203
0.001962423324584961
0.0019452571868896484
0.0019524097442626953
0.0019440650939941406
0.0019459724426269531
0.0019450187683105469
0.001941680908203125
0.001961946487426758
0.0019464492797851562
0.0019567012786865234
0.001950979232788086
0.0020384788513183594
0.0019931793212890625
0.0019526481628417969
0.0019478797912597656
0.001967191696166992
0.001956939697265625
0.002046823501586914
0.0019681453704833984
0.0019478797912597656
0.001985311508178711
0.0021784305572509766
0.001975536346435547
0.0020732879638671875
0.0019655227661132812
0.0019490718841552734
0.0019505023956298828
0.0019435882568359375
0.0019481182098388672
0.0019855499267578125
0.0019485950469970703
0.0019385814666748047
0.0019674301147460938
0.001978635787963867
0.0019850730895996094
0.0019655227661132812
0.001985788345336914
0.0019428730010986328
0.0019526481628417969
0.001949310302734375
0.0019466876983642578
0.0019922256469726562
0.0019593238830566406
0.001965761184692383
0.0019578933715820312
0.0019762516021728516
0.001981496810913086
0.0019521713256835938
0.0019898414611816406
0.00194549560546875
0.0019464492797851562
0.002130270004272461
0.001975536346435547
0.0019524097442626953
0.0019593238830566406
0.0019872188568115234
0.0019538402557373047
0.002020120620727539
0.0019576549530029297
0.001959085464477539
0.0019524097442626953
0.0019483566284179688
0.001949310302734375
0.0019428730010986328
0.001949310302734375
0.0019457340240478516
0.0019466876983642578
0.0019805431365966797
0.0019795894622802734
0.0019545555114746094
0.0019865036010742188
0.0019483566284179688
0.0019466876983642578
0.0019409656524658203
0.0019881725311279297
0.001981973648071289
0.0019485950469970703
0.0019407272338867188
0.001958608627319336
0.002202272415161133
0.0026874542236328125
0.002603292465209961
0.0021185874938964844
0.0020017623901367188
0.001967906951904297
0.0018353462219238281
0.0018093585968017578
0.001827239990234375
0.0017998218536376953
0.0018274784088134766
0.002008199691772461
0.0019881725311279297
0.001954317092895508
0.0019412040710449219
0.0019485950469970703
0.001953125
0.0019826889038085938
0.001955747604370117
0.0019481182098388672
0.001990795135498047
0.001961231231689453
0.0019834041595458984
0.0019702911376953125
0.0019822120666503906
0.0019478797912597656
0.0019538402557373047
0.001950979232788086
0.0019500255584716797
0.001950979232788086
0.0019550323486328125
0.001960277557373047
0.0019428730010986328
0.0020325183868408203
0.0019669532775878906
0.0019865036010742188
0.0019865036010742188
0.001953601837158203
0.001953125
0.001949310302734375
0.0019683837890625
0.0019550323486328125
0.0019686222076416016
0.001955747604370117
0.0019495487213134766
0.001974344253540039
0.001956939697265625
0.0019979476928710938
0.0019466876983642578
0.0019953250885009766
0.001963376998901367
0.0019555091857910156
0.0019621849060058594
0.0019500255584716797
0.0019626617431640625
0.0019562244415283203
0.001963376998901367
0.001966714859008789
0.001976490020751953
0.0019521713256835938
0.0019583702087402344
0.0019550323486328125
0.0020322799682617188
0.0020089149475097656
0.001961946487426758
0.0019588470458984375
0.0019550323486328125
0.0020656585693359375
0.00201416015625
0.0019655227661132812
0.001988649368286133
0.0019462108612060547
0.0019478797912597656
0.001996755599975586
0.0019526481628417969
0.0019526481628417969
0.0019631385803222656
0.0019519329071044922
0.0019593238830566406
0.001987457275390625
0.0019958019256591797
0.0019943714141845703
0.0019545555114746094
0.0019583702087402344
0.001953125
0.0019526481628417969
0.0019562244415283203
0.001950979232788086
0.001957416534423828
0.0019495487213134766
0.001951456069946289
0.0019915103912353516
0.002001523971557617
0.002042055130004883
0.0019626617431640625
0.001954793930053711
0.0019521713256835938
0.001956939697265625
0.0020308494567871094
0.001967906951904297
0.001962900161743164
0.0019593238830566406
0.001986980438232422
0.002020597457885742
0.0020728111267089844
0.001977205276489258
0.001969575881958008
0.00196075439453125
0.0019953250885009766
0.001962423324584961
0.0019567012786865234
0.001955270767211914
0.001987934112548828
0.0019614696502685547
0.001983165740966797
0.0021142959594726562
0.0021123886108398438
0.002049684524536133
0.0020072460174560547
0.001987934112548828
0.0019817352294921875
0.0019719600677490234
0.0019719600677490234
0.0020906925201416016
0.0019845962524414062
0.0019922256469726562
0.0019769668579101562
0.0019953250885009766
0.001947641372680664
0.002008676528930664
0.001953601837158203
0.001957416534423828
0.0019681453704833984
0.0019969940185546875
0.0020172595977783203
0.0019769668579101562
0.001995563507080078
0.0019745826721191406
0.002027273178100586
0.0019974708557128906
0.001996755599975586
0.0019943714141845703
0.001965045928955078
0.001977205276489258
0.0019812583923339844
0.0019724369049072266
0.0019614696502685547
0.0019979476928710938
0.0020666122436523438
0.002019166946411133
0.0020470619201660156
0.001970052719116211
0.002015352249145508
0.0020058155059814453
0.002009868621826172
0.0020220279693603516
0.001968860626220703
0.0019838809967041016
0.001965045928955078
0.001970052719116211
0.0020203590393066406
0.001992940902709961
0.0019571781158447266
0.0019576549530029297
0.0019736289978027344
0.0019860267639160156
0.001964569091796875
0.0021791458129882812
0.0020058155059814453
0.001971006393432617
0.0019745826721191406
0.002004861831665039
0.0019752979278564453
0.0020475387573242188
0.001973390579223633
0.0020046234130859375
0.0020580291748046875
0.0020258426666259766
0.001984834671020508
0.001966238021850586
0.0019659996032714844
0.00196075439453125
0.001970529556274414
0.0020291805267333984
0.0020322799682617188
0.001975536346435547
0.001963376998901367
0.001976490020751953
0.001965761184692383
0.001962900161743164
0.0019674301147460938
0.0019636154174804688
0.001971721649169922
0.001964569091796875
0.002011537551879883
0.0019729137420654297
0.0019948482513427734
0.001965761184692383
0.0020012855529785156
0.0019664764404296875
0.0019712448120117188
0.0019614696502685547
0.0020072460174560547
0.0019648075103759766
0.001959085464477539
0.0020046234130859375
0.0019741058349609375
0.0019991397857666016
0.0019676685333251953
0.0019674301147460938
0.0019495487213134766
0.0019626617431640625
0.0019540786743164062
0.0020241737365722656
0.001967191696166992
0.0019750595092773438
0.0019817352294921875
0.0020325183868408203
0.0019838809967041016
0.0019791126251220703
0.0019631385803222656
0.0020101070404052734
0.001997232437133789
0.002056598663330078
0.001990079879760742
0.0019807815551757812
0.001965761184692383
0.001963376998901367
0.00202178955078125
0.0019664764404296875
0.0019989013671875
0.001959085464477539
0.002015829086303711
0.0019719600677490234
0.001981496810913086
0.002840280532836914
0.002271890640258789
0.0020530223846435547
0.002010822296142578
0.0015034675598144531
0.001478433609008789
0.0015153884887695312
0.0015282630920410156
0.0015060901641845703
0.00173187255859375
0.0017027854919433594
0.0017044544219970703
0.0016942024230957031
0.0017652511596679688
0.0017387866973876953
0.0015647411346435547
0.0015213489532470703
0.0015826225280761719
0.001556396484375
0.0015666484832763672
0.001524209976196289
0.0015273094177246094
0.0015194416046142578
0.0015225410461425781
0.0016071796417236328
0.0016181468963623047
0.001600027084350586
0.0016045570373535156
0.0015976428985595703
0.001695394515991211
0.0015635490417480469
0.001524209976196289
0.0015406608581542969
0.001554250717163086
0.001600027084350586
0.0016222000122070312
0.001603841781616211
0.0016036033630371094
0.0016758441925048828
0.0016243457794189453
0.0015647411346435547
0.0015690326690673828
0.00152587890625
0.0015287399291992188
0.0015151500701904297
0.0017218589782714844
0.0016956329345703125
0.0017015933990478516
0.0016908645629882812
0.0016970634460449219
0.001542806625366211
0.001528024673461914
0.0015311241149902344
0.0015795230865478516
0.0015246868133544922
0.0016169548034667969
0.0015952587127685547
0.001604318618774414
0.001592397689819336
0.0015964508056640625
0.0016613006591796875
0.0016262531280517578
0.0015342235565185547
0.001615285873413086
0.0015683174133300781
0.0015711784362792969
0.0015330314636230469
0.0015194416046142578
0.0015537738800048828
0.0015349388122558594
0.001605987548828125
0.0016524791717529297
0.0016124248504638672
0.0016050338745117188
0.0016126632690429688
0.0017004013061523438
0.0015747547149658203
0.0015277862548828125
0.001523733139038086
0.0015268325805664062
0.0015149116516113281
0.0016605854034423828
0.0016279220581054688
0.0016071796417236328
0.0016024112701416016
0.0016326904296875
0.0015797615051269531
0.0015707015991210938
0.00156402587890625
0.0015325546264648438
0.0015273094177246094
0.001729726791381836
0.001707315444946289
0.0016973018646240234
0.0016884803771972656
0.0016951560974121094
0.001729726791381836
0.0015327930450439453
0.0015788078308105469
0.0015630722045898438
0.0015244483947753906
0.0015354156494140625
0.001531362533569336
0.0015308856964111328
0.0015192031860351562
0.001867532730102539
0.0018603801727294922
0.0016751289367675781
0.0016567707061767578
0.001669168472290039
0.001664876937866211
0.0016138553619384766
0.0016117095947265625
0.0016453266143798828
0.0016126632690429688
0.0016052722930908203
0.0016050338745117188
0.0016329288482666016
0.0016257762908935547
0.001628875732421875
0.001623392105102539
0.0016295909881591797
0.0015439987182617188
0.0015215873718261719
0.0015206336975097656
0.0015215873718261719
0.0016169548034667969
0.0016760826110839844
0.0017654895782470703
0.0017151832580566406
0.0017058849334716797
0.0016965866088867188
0.0018253326416015625
0.0020377635955810547
0.001977205276489258
0.001990795135498047
0.0019693374633789062
0.001995086669921875
0.001986265182495117
0.001974344253540039
0.0019736289978027344
0.0019745826721191406
0.0020263195037841797
0.0019941329956054688
0.002012968063354492
0.0019707679748535156
0.0019750595092773438
0.0019676685333251953
0.0019788742065429688
0.0019686222076416016
0.0019693374633789062
0.0020227432250976562
0.0019903182983398438
0.001986265182495117
0.001989126205444336
0.0019881725311279297
0.0019807815551757812
0.001995563507080078
0.002064228057861328
0.0019838809967041016
0.0019807815551757812
0.0019631385803222656
0.001971006393432617
0.001967191696166992
0.0019783973693847656
0.0019762516021728516
0.0020275115966796875
0.002012968063354492
0.0019774436950683594
0.0020134449005126953
0.001990079879760742
0.001973867416381836
0.002001523971557617
0.001981973648071289
0.0019788742065429688
0.0019702911376953125
0.002019166946411133
0.0020208358764648438
0.0020089149475097656
0.0020089149475097656
0.0020055770874023438
0.0019805431365966797
0.0022041797637939453
0.002020597457885742
0.002008676528930664
0.001990795135498047
0.0019800662994384766
0.0019702911376953125
0.0020711421966552734
0.0020520687103271484
0.0020186901092529297
0.001979351043701172
0.001977205276489258
0.001981019973754883
0.0019838809967041016
0.001973390579223633
0.001973390579223633
0.001978158950805664
0.0019741058349609375
0.0019829273223876953
0.0019872188568115234
0.0020618438720703125
0.00202178955078125
0.0019931793212890625
0.0019931793212890625
0.0019788742065429688
0.001977205276489258
0.0019767284393310547
0.0019762516021728516
0.001981973648071289
0.0019719600677490234
0.001986980438232422
0.0019922256469726562
0.0020079612731933594
0.002014636993408203
0.0019822120666503906
0.001970052719116211
0.0019762516021728516
0.002019166946411133
0.002003908157348633
0.001986980438232422
0.0020041465759277344
0.001969575881958008
0.0020143985748291016
0.0019953250885009766
0.0020263195037841797
0.002028942108154297
0.0019788742065429688
0.001981496810913086
0.001974344253540039
0.0019834041595458984
0.0019681453704833984
0.0020020008087158203
0.0019783973693847656
0.0019860267639160156
0.001998424530029297
0.001998424530029297
0.0019762516021728516
0.001967191696166992
0.0019729137420654297
0.002015829086303711
0.0020012855529785156
0.0019807815551757812
0.0019826889038085938
0.001974821090698242
0.001976490020751953
0.002017498016357422
0.0020287036895751953
0.0020530223846435547
0.0019850730895996094
0.00203704833984375
0.002124309539794922
0.0021486282348632812
0.002014636993408203
0.002028226852416992
0.0019998550415039062
0.0019948482513427734
0.002012968063354492
0.001987457275390625
0.002023935317993164
0.0019783973693847656
0.0020401477813720703
0.0020029544830322266
0.0019986629486083984
0.002022981643676758
0.0019922256469726562
0.0019998550415039062
0.0019834041595458984
0.0019981861114501953
0.002227306365966797
0.0021560192108154297
0.0020542144775390625
0.001997232437133789
0.0020761489868164062
0.002003908157348633
0.0020246505737304688
0.002376079559326172
0.002048969268798828
0.0020804405212402344
0.0020406246185302734
0.002040386199951172
0.0020589828491210938
0.0020520687103271484
0.001992940902709961
0.0020291805267333984
0.002025127410888672
0.0019943714141845703
0.002004861831665039
0.001988649368286133
0.001990079879760742
0.002017498016357422
0.002018451690673828
0.0020122528076171875
0.002044677734375
0.0019965171813964844
0.0019779205322265625
0.0019690990447998047
0.0019838809967041016
0.001977682113647461
0.0019783973693847656
0.0019698143005371094
0.002036571502685547
0.0020020008087158203
0.0019981861114501953
0.001991748809814453
0.0020291805267333984
0.0019927024841308594
0.001986265182495117
0.0020341873168945312
0.001997232437133789
0.0019850730895996094
0.002025127410888672
0.0020513534545898438
0.0020058155059814453
0.0020132064819335938
0.0019979476928710938
0.0020096302032470703
0.0020198822021484375
0.001983165740966797
0.0019767284393310547
0.001987934112548828
0.0019774436950683594
0.0020177364349365234
0.0019795894622802734
0.0019750595092773438
0.0019989013671875
0.002055644989013672
0.0020055770874023438
0.0020225048065185547
0.0019843578338623047
0.0020308494567871094
0.001987934112548828
0.0020062923431396484
0.001995086669921875
0.001984119415283203
0.002025127410888672
0.0019829273223876953
0.001997709274291992
0.0020835399627685547
0.0020308494567871094
0.0019850730895996094
0.001991748809814453
0.0019834041595458984
0.0020258426666259766
0.0019905567169189453
0.0020263195037841797
0.0019888877868652344
0.0019881725311279297
0.002029895782470703
0.002016305923461914
0.001981496810913086
0.0020589828491210938
0.001992940902709961
0.001984834671020508
0.002002716064453125
0.001986265182495117
0.0020275115966796875
0.0020067691802978516
0.0020232200622558594
0.00200653076171875
0.0020105838775634766
0.0020036697387695312
0.0020246505737304688
0.0019850730895996094
0.0019867420196533203
0.001995086669921875
0.001983642578125
0.0019767284393310547
0.0020258426666259766
0.002004384994506836
0.0019986629486083984
0.004368305206298828
0.002115011215209961
0.0018916130065917969
0.0020482540130615234
0.001722574234008789
0.0017795562744140625
0.0017609596252441406
0.0016927719116210938
0.0019419193267822266
0.0021123886108398438
0.0020515918731689453
0.0020351409912109375
0.002016305923461914
0.002079486846923828
0.0020432472229003906
0.001997232437133789
0.001992940902709961
0.001996755599975586
0.001988649368286133
0.001998424530029297
0.0019860267639160156
0.001979351043701172
0.0019910335540771484
0.0019881725311279297
0.002042055130004883
0.0020389556884765625
0.002040386199951172
0.0020170211791992188
0.0019919872283935547
0.001993417739868164
0.0020575523376464844
0.002007007598876953
0.0020008087158203125
0.001996755599975586
0.002000570297241211
0.002029895782470703
0.0020143985748291016
0.0020263195037841797
0.0019919872283935547
0.0020270347595214844
0.001985311508178711
0.0019876956939697266
0.002118825912475586
0.0020084381103515625
0.0019969940185546875
0.002007722854614258
0.0019922256469726562
0.0020318031311035156
0.0019910335540771484
0.002101421356201172
0.0020170211791992188
0.001997709274291992
0.0019903182983398438
0.001979351043701172
0.0019845962524414062
0.002074718475341797
0.0020072460174560547
0.0020058155059814453
0.0020585060119628906
0.002039670944213867
0.002044677734375
0.002201080322265625
0.0020377635955810547
0.002019166946411133
0.002004861831665039
0.0020089149475097656
0.0019958019256591797
0.0019881725311279297
0.001987934112548828
0.0019822120666503906
0.002017498016357422
0.0019888877868652344
0.0020172595977783203
0.0019888877868652344
0.0019850730895996094
0.002016305923461914
0.001991748809814453
0.0019822120666503906
0.0020227432250976562
0.0019910335540771484
0.0021092891693115234
0.002034425735473633
0.002002239227294922
0.002020597457885742
0.0019905567169189453
0.001979827880859375
0.001993894577026367
0.002031564712524414
0.002003908157348633
0.001993894577026367
0.001993417739868164
0.0020034313201904297
0.0019881725311279297
0.0020101070404052734
0.00202178955078125
0.0020143985748291016
0.0019991397857666016
0.0019865036010742188
0.0020139217376708984
0.0020132064819335938
0.002000570297241211
0.0019960403442382812
0.001983642578125
0.001987457275390625
0.0020444393157958984
0.0020880699157714844
0.002061128616333008
0.0019876956939697266
0.0019953250885009766
0.0019922256469726562
0.0020117759704589844
0.0020558834075927734
0.0019996166229248047
0.0019898414611816406
0.0019834041595458984
0.002014636993408203
0.0019998550415039062
0.002048969268798828
0.002008676528930664
0.0019922256469726562
0.001983165740966797
0.001980304718017578
0.0019986629486083984
0.001985788345336914
0.001981496810913086
0.0019774436950683594
0.001984119415283203
0.0020456314086914062
0.0019979476928710938
0.002016305923461914
0.0020799636840820312
0.0020155906677246094
0.0020253658294677734
0.0019998550415039062
0.0020401477813720703
0.0019931793212890625
0.002025127410888672
0.0019888877868652344
0.002007007598876953
0.0019898414611816406
0.002012014389038086
0.002007722854614258
0.001988649368286133
0.0019958019256591797
0.001982450485229492
0.001993417739868164
0.001985788345336914
0.0020112991333007812
0.002000093460083008
0.0020089149475097656
0.0020155906677246094
0.002010822296142578
0.002056121826171875
0.0019948482513427734
0.0020258426666259766
0.002058267593383789
0.0019991397857666016
0.0019903182983398438
0.0020036697387695312
0.0020029544830322266
0.001992940902709961
0.002020597457885742
0.0020182132720947266
0.0020799636840820312
0.0019943714141845703
0.0019915103912353516
0.0019915103912353516
0.0019893646240234375
0.0019884109497070312
0.001998424530029297
0.0019867420196533203
0.001984119415283203
0.001990079879760742
0.0020236968994140625
0.0020284652709960938
0.0020029544830322266
0.0019927024841308594
0.002012014389038086
0.001998424530029297
0.0020029544830322266
0.002234935760498047
0.002043485641479492
0.0020699501037597656
0.002031087875366211
0.002044200897216797
0.002022266387939453
0.002048492431640625
0.0020034313201904297
0.001999378204345703
0.002050161361694336
0.0020072460174560547
0.002003192901611328
0.001997709274291992
0.0019960403442382812
0.0019919872283935547
0.002006053924560547
0.0020232200622558594
0.002011537551879883
0.002022981643676758
0.0020134449005126953
0.0020303726196289062
0.0020020008087158203
0.002027750015258789
0.002000093460083008
0.0020084381103515625
0.0021185874938964844
0.002025127410888672
0.002016305923461914
0.0020198822021484375
0.0020401477813720703
0.0020072460174560547
0.00202178955078125
0.0020029544830322266
0.0019888877868652344
0.002028942108154297
0.0020110607147216797
0.0020012855529785156
0.001994609832763672
0.0020401477813720703
0.002042531967163086
0.0020313262939453125
0.0020051002502441406
0.0019996166229248047
0.001998424530029297
0.0019922256469726562
0.0020360946655273438
0.001995563507080078
0.0020017623901367188
0.001992940902709961
0.001995086669921875
0.002137422561645508
0.0020322799682617188
0.0020313262939453125
0.0020003318786621094
0.002014636993408203
0.0019898414611816406
0.0020024776458740234
0.001993894577026367
0.0020089149475097656
0.0019998550415039062
0.0020012855529785156
0.0020041465759277344
0.002033710479736328
0.0020020008087158203
0.0020351409912109375
0.0019850730895996094
0.0019974708557128906
0.0019941329956054688
0.002047300338745117
0.002018451690673828
0.0021288394927978516
0.002167224884033203
0.0020782947540283203
0.002382516860961914
0.0020456314086914062
0.002135753631591797
0.002069234848022461
0.0020189285278320312
0.002008199691772461
0.002007722854614258
0.0020008087158203125
0.0020627975463867188
0.0020246505737304688
0.002017974853515625
0.0020058155059814453
0.0020482540130615234
0.0020647048950195312
0.002056598663330078
0.002041339874267578
0.002006053924560547
0.002007007598876953
0.0020058155059814453
0.0015671253204345703
0.0016047954559326172
0.0015926361083984375
0.0015833377838134766
0.0015697479248046875
0.001689910888671875
0.0016744136810302734
0.0016620159149169922
0.0016896724700927734
0.0016298294067382812
0.001718282699584961
0.0020329952239990234
0.001972675323486328
0.0015745162963867188
0.0016269683837890625
0.001638650894165039
0.0016732215881347656
0.002518892288208008
0.0017251968383789062
0.0016851425170898438
0.0017278194427490234
0.0015878677368164062
0.001642465591430664
0.0015676021575927734
0.0015597343444824219
0.0016448497772216797
0.0016717910766601562
0.0016374588012695312
0.0016849040985107422
0.0016808509826660156
0.0016281604766845703
0.0016133785247802734
0.0015578269958496094
0.0016236305236816406
0.0016117095947265625
0.001566171646118164
0.00156402587890625
0.0015616416931152344
0.0015578269958496094
0.0017657279968261719
0.0016562938690185547
0.0017528533935546875
0.0016644001007080078
0.0016591548919677734
